EC-Lab ASCII FILE
Nb header lines : 55                          

Cyclic Voltammetry

Run on channel : 2 (SN 16544)
User : 
CE vs. WE compliance from -10 V to 10 V
Electrode connection : standard
Ewe ctrl range : min = -5.00 V, max = 5.00 V
Safety Limits :
	Do not start on E overload
Acquisition started on : 07/05/2018 16:00:59
Technique started on : 07/05/2018 16:00:59
Saved on :
	File : resistance_CV-anode6-v1-2018-07-05_C02.mpr
	Directory : D:\Wolf\mantis-cell-characterization\
	Host : 10.19.194.129
Device : VMP3 (SN 0776)
Address : USB
EC-Lab for windows v11.20 (software)
Internet server v11.20 (firmware)
Command interpretor v11.20 (firmware)
Electrode material : N/A
Initial state : 
Electrolyte : None
Comments : Empty cell (teflon spacer)
Electrode surface area : 0.001 cm²
Characteristic mass : 0.001 g
Equivalent Weight : 0.000 g/eq.
Density : 0.000 g/cm3
Cycle Definition : Charge/Discharge alternance
Ei (V)              0.000               
vs.                 Ref                 
dE/dt               0.100               
dE/dt unit          mV/s                
E1 (V)              5.000               
vs.                 Ref                 
Step percent        50                  
N                   10                  
E range min (V)     -5.000              
E range max (V)     5.000               
I Range             Auto                
I Range min         Unset               
I Range max         Unset               
I Range init        Unset               
Bandwidth           5                   
E2 (V)              -5.000              
vs.                 Ref                 
nc cycles           4                   
Reverse Scan        1                   
Ef (V)              0.000               
vs.                 Eoc                 

mode	ox/red	error	control changes	counter inc.	time/s	control/V	Ewe/V	<I>/mA	cycle number	(Q-Qo)/C	(Q-Qo)/mA.h	Q charge/mA.h	Q discharge/mA.h	dI/dt/mA/s	cycle time/s	step time/s	charge time/s	discharge time/s	dq/mA.h	P/W	
2	1	0	0	0	1.099939972213178E+001	1.1967376E-003	8.5722597E-004	2.467373060214631E-005	1.000000000000000E+000	2.8046131E-007	7.790591875315538E-008	7.790591875315538E-008	0.000000000000000E+000	-6.3709228E-007	1.099939972213178E+001	1.099939972213178E+001	1.099939972213178E+001	-1.000000000000000E+000	7.790591875315538E-008	2.1150963E-011
2	1	0	0	0	4.010796398678758E+003	4.0117618E-001	4.0079123E-001	8.876221402535401E-005	1.000000000000000E+000	2.2948226E-004	6.374507291992713E-005	6.374507291992713E-005	0.000000000000000E+000	1.8496278E-009	4.010796398678758E+003	4.010796398678758E+003	4.010796398678758E+003	-1.000000000000000E+000	4.929097485728562E-007	3.5575116E-008
2	1	0	1	0	8.010598449131547E+003	8.0115563E-001	8.0086201E-001	1.183561056767373E-004	1.000000000000000E+000	5.6903542E-004	1.580653932049043E-004	1.580653932049043E-004	0.000000000000000E+000	2.3748903E-008	8.010598449131547E+003	8.010598449131547E+003	8.010598449131547E+003	-1.000000000000000E+000	6.561781952364818E-007	9.4786913E-008
2	1	0	1	0	1.201040270070516E+004	1.2011349E+000	1.2007576E+000	9.284880153991280E-004	1.000000000000000E+000	1.8262928E-003	5.073035653266641E-004	5.073035653266641E-004	0.000000000000000E+000	5.0228249E-007	1.201040270070516E+004	1.201040270070516E+004	1.201040270070516E+004	-1.000000000000000E+000	5.116841445366505E-006	1.1148891E-006
2	1	0	1	0	1.601020585227874E+004	1.6011146E+000	1.6008571E+000	6.139261332518470E-002	1.000000000000000E+000	7.9054594E-002	2.195960945553250E-002	2.195960945553250E-002	0.000000000000000E+000	2.4928675E-006	1.601020585227874E+004	1.601020585227874E+004	1.601020585227874E+004	-1.000000000000000E+000	3.403073383702188E-004	9.8280805E-005
2	1	0	0	0	2.001200980382811E+004	2.0012937E+000	2.0011322E+000	6.205110800161751E-002	1.000000000000000E+000	3.1754369E-001	8.820657928784688E-002	8.820657928784688E-002	0.000000000000000E+000	3.0491336E-005	2.001200980382811E+004	2.001200980382811E+004	2.001200980382811E+004	-1.000000000000000E+000	3.403425216674805E-004	1.2417247E-004
2	1	0	1	0	2.401181355540175E+004	2.4012735E+000	2.4007995E+000	1.729070808468536E-001	1.000000000000000E+000	8.4631294E-001	2.350869278113047E-001	2.350869278113047E-001	0.000000000000000E+000	-1.3737808E-006	2.401181355540175E+004	2.401181355540175E+004	2.401181355540175E+004	-1.000000000000000E+000	9.622673193613596E-004	4.1511524E-004
2	1	0	1	0	2.801161590697535E+004	2.8012524E+000	2.8008840E+000	1.448020239383663E-001	1.000000000000000E+000	1.5046085E+000	4.179468088679844E-001	4.179468088679844E-001	0.000000000000000E+000	-3.3040476E-004	2.801161590697535E+004	2.801161590697535E+004	2.801161590697535E+004	-1.000000000000000E+000	8.246302604675293E-004	4.0557366E-004
2	1	0	1	0	3.201141965854898E+004	3.2012322E+000	3.2008145E+000	1.889289830707157E-001	1.000000000000000E+000	2.2673404E+000	6.298167837990655E-001	6.298167837990655E-001	0.000000000000000E+000	-6.4194777E-005	3.201141965854898E+004	3.201141965854898E+004	3.201141965854898E+004	-1.000000000000000E+000	1.047584745619057E-003	6.0472661E-004
2	1	0	1	0	3.601122465543007E+004	3.6012111E+000	3.6008501E+000	1.399083488509238E-001	1.000000000000000E+000	2.9442654E+000	8.178514904446073E-001	8.178514904446073E-001	0.000000000000000E+000	-7.8280609E-006	3.601122465543007E+004	3.601122465543007E+004	3.601122465543007E+004	-1.000000000000000E+000	7.762511571248742E-004	5.0378899E-004
2	1	0	0	0	4.001102826288017E+004	4.0011902E+000	4.0009704E+000	1.120937520472867E-001	1.000000000000000E+000	3.4660020E+000	9.627783298492432E-001	9.627783298492432E-001	0.000000000000000E+000	2.1225760E-006	4.001102826288017E+004	4.001102826288017E+004	4.001102826288017E+004	-1.000000000000000E+000	6.114112006293526E-004	4.4848377E-004
2	1	0	0	0	4.401083207033043E+004	4.4011703E+000	4.4006195E+000	1.413108652291624E-001	1.000000000000000E+000	3.9801576E+000	1.105599337153965E+000	1.105599337153965E+000	0.000000000000000E+000	-4.8084464E-004	4.401083207033043E+004	4.401083207033043E+004	4.401083207033043E+004	-1.000000000000000E+000	8.010864257812500E-004	6.2185538E-004
2	1	0	0	0	4.801063587778067E+004	4.8011494E+000	4.8006201E+000	1.441027277932307E-001	1.000000000000000E+000	4.6305447E+000	1.286262406243218E+000	1.286262406243218E+000	0.000000000000000E+000	1.6932823E-003	4.801063587778067E+004	4.801063587778067E+004	4.801063587778067E+004	-1.000000000000000E+000	6.916787889270637E-004	6.9178245E-004
2	0	0	1	0	5.199038608519355E+004	4.8009496E+000	4.8003969E+000	1.764695604320323E-001	1.000000000000000E+000	5.4336166E+000	1.509337955050998E+000	1.509337955050998E+000	0.000000000000000E+000	-3.4084329E-005	5.199038608519355E+004	1.990856103708327E+003	1.990856103708327E+003	-1.000000000000000E+000	9.824170006644817E-004	8.4712391E-004
2	0	0	1	0	5.599009449264361E+004	4.4009705E+000	4.4003448E+000	1.358800847245139E-001	1.000000000000000E+000	6.0827999E+000	1.689666642083062E+000	1.689666642083062E+000	0.000000000000000E+000	-1.7907951E-004	5.599009449264361E+004	5.990564511158387E+003	5.990564511158387E+003	-1.000000000000000E+000	7.642640007867740E-004	5.9791922E-004
2	0	0	1	0	5.998980390009360E+004	4.0009909E+000	4.0004125E+000	1.307597899696330E-001	1.000000000000000E+000	6.6584678E+000	1.849574380450778E+000	1.849574380450778E+000	0.000000000000000E+000	4.1009444E-005	5.998980390009360E+004	9.990273918608378E+003	9.990273918608378E+003	-1.000000000000000E+000	7.241302066378630E-004	5.2309310E-004
2	0	0	0	0	6.398955990754371E+004	3.6010118E+000	3.6004543E+000	1.073800343856967E-001	1.000000000000000E+000	7.1750102E+000	1.993058390087552E+000	1.993058390087552E+000	0.000000000000000E+000	3.9607541E-005	6.398955990754371E+004	1.399002992605849E+004	1.399002992605849E+004	-1.000000000000000E+000	5.968411763510595E-004	3.8661691E-004
2	0	0	0	0	6.798931653008773E+004	3.2010319E+000	3.2004299E+000	9.403691768239586E-002	1.000000000000000E+000	7.5954251E+000	2.109840313593546E+000	2.109840313593546E+000	0.000000000000000E+000	3.1718923E-006	6.798931653008773E+004	1.798978654860251E+004	1.798978654860251E+004	-1.000000000000000E+000	5.210770501027362E-004	3.0095858E-004
2	0	0	0	0	7.198907158399641E+004	2.8010526E+000	2.8005776E+000	8.263859142811203E-002	1.000000000000000E+000	7.9584990E+000	2.210694154103597E+000	2.210694154103597E+000	0.000000000000000E+000	2.6564419E-005	7.198907158399641E+004	2.198954160251119E+004	2.198954160251119E+004	-1.000000000000000E+000	4.572338528103792E-004	2.3143578E-004
2	0	0	0	0	7.598882563787769E+004	2.4010730E+000	2.4005494E+000	7.048924775701115E-002	1.000000000000000E+000	8.2706518E+000	2.297403282589383E+000	2.297403282589383E+000	0.000000000000000E+000	-8.7879889E-006	7.598882563787769E+004	2.598929565639247E+004	2.598929565639247E+004	-1.000000000000000E+000	3.880924648709261E-004	1.6921292E-004
2	0	0	0	0	7.998858069176623E+004	2.0010936E+000	2.0007412E+000	5.672636009989984E-002	1.000000000000000E+000	8.5300074E+000	2.369446489546034E+000	2.369446489546034E+000	0.000000000000000E+000	-9.9091349E-006	7.998858069176623E+004	2.998905071028101E+004	2.998905071028101E+004	-1.000000000000000E+000	3.163019816079249E-004	1.1349477E-004
2	0	0	1	0	8.398835894566745E+004	1.6011145E+000	1.6006740E+000	3.633963580462496E-002	1.000000000000000E+000	8.7192135E+000	2.422003746032715E+000	2.422003746032715E+000	0.000000000000000E+000	-1.6133062E-006	8.398835894566745E+004	3.398882896418223E+004	3.398882896418223E+004	-1.000000000000000E+000	2.021259731717073E-004	5.8167912E-005
2	0	0	1	0	8.798813739955029E+004	1.2011349E+000	1.2006837E+000	3.163002415882600E-002	1.000000000000000E+000	8.8547783E+000	2.459660636054145E+000	2.459660636054145E+000	0.000000000000000E+000	-2.0648138E-006	8.798813739955029E+004	3.798860741806508E+004	3.798860741806508E+004	-1.000000000000000E+000	1.756350199380030E-004	3.7977654E-005
2	0	0	0	0	9.198792255342420E+004	8.0115551E-001	8.0066395E-001	2.434866255981138E-002	1.000000000000000E+000	8.9675140E+000	2.490976121690538E+000	2.490976121690538E+000	0.000000000000000E+000	-3.4998814E-006	9.198792255342420E+004	4.198839257193898E+004	4.198839257193898E+004	-1.000000000000000E+000	1.356336805558023E-004	1.9495097E-005
2	0	0	1	0	9.598771330732387E+004	4.0117618E-001	4.0073752E-001	1.246192456469752E-002	1.000000000000000E+000	9.0417461E+000	2.511596149868435E+000	2.511596149868435E+000	0.000000000000000E+000	-1.3768564E-006	9.598771330732387E+004	4.598818332583865E+004	4.598818332583865E+004	-1.000000000000000E+000	6.940629747198557E-005	4.9939608E-006
2	0	0	1	0	9.998750576120708E+004	1.1967376E-003	9.2022913E-004	-4.209438778349171E-006	1.000000000000000E+000	9.0648270E+000	2.518007490370008E+000	0.000000000000000E+000	0.000000000000000E+000	-2.4583113E-009	9.998750576120708E+004	0.000000000000000E+000	-1.000000000000000E+000	-1.000000000000000E+000	0.000000000000000E+000	-3.8736484E-012
2	0	0	1	0	1.039872983150759E+005	-3.9878288E-001	-3.9922538E-001	-1.021272587503971E-005	1.000000000000000E+000	9.0647964E+000	2.517999013264974E+000	0.000000000000000E+000	0.000000000000000E+000	-2.4593709E-009	1.039872983150759E+005	0.000000000000000E+000	-1.000000000000000E+000	-1.000000000000000E+000	0.000000000000000E+000	4.0771795E-009
2	0	0	0	0	1.079870883689686E+005	-7.9876244E-001	-7.9914355E-001	-6.116433443665428E-003	1.000000000000000E+000	9.0521030E+000	2.514473067389594E+000	0.000000000000000E+000	3.523561689589005E-003	-1.2654127E-006	1.079870883689686E+005	5.798755838748335E+004	-1.000000000000000E+000	5.798755838748335E+004	-3.390842013883955E-005	4.8879083E-006
2	0	0	0	0	1.119868729228599E+005	-1.1987420E+000	-1.1990513E+000	-1.066680105141057E-002	1.000000000000000E+000	9.0194454E+000	2.505401505364312E+000	0.000000000000000E+000	1.259512371487093E-002	-2.2765075E-006	1.119868729228599E+005	6.198734294137463E+004	-1.000000000000000E+000	6.198734294137463E+004	-5.907482571076983E-005	1.2790041E-005
2	0	0	1	0	1.159866513767310E+005	-1.5987217E+000	-1.5990192E+000	-1.610536753414826E-002	1.000000000000000E+000	8.9644804E+000	2.490133444468180E+000	0.000000000000000E+000	2.786318461100290E-002	1.2666774E-005	1.159866513767310E+005	6.598712139524578E+004	-1.000000000000000E+000	6.598712139524578E+004	-9.033415052650540E-005	2.5752792E-005
2	0	0	1	0	1.199864296306211E+005	-1.9987012E+000	-1.9990414E+000	-2.166992589329002E-002	1.000000000000000E+000	8.8743668E+000	2.465101877848307E+000	0.000000000000000E+000	5.289475123087595E-002	1.9089937E-005	1.199864296306211E+005	6.998689964913591E+004	-1.000000000000000E+000	6.998689964913591E+004	-1.213285658097085E-004	4.3319080E-005
2	0	0	1	0	1.239861848845244E+005	-2.3986807E+000	-2.3994389E+000	-2.335308051500462E-002	1.000000000000000E+000	8.7696056E+000	2.436001565721300E+000	0.000000000000000E+000	8.199506335788298E-002	5.1067304E-006	1.239861848845244E+005	7.398665490303922E+004	-1.000000000000000E+000	7.398665490303922E+004	-1.287460327148438E-004	5.6034289E-005
2	0	0	1	0	1.279859399384020E+005	-2.7986605E+000	-2.7993836E+000	-2.983141292098018E-002	1.000000000000000E+000	8.6589556E+000	2.405265437232123E+000	0.000000000000000E+000	1.127311918470597E-001	-3.1186002E-005	1.279859399384020E+005	7.798640995691682E+004	-1.000000000000000E+000	7.798640995691682E+004	-1.650386386446989E-004	8.3509571E-005
2	0	0	0	0	1.319856941514038E+005	-3.1986401E+000	-3.1993287E+000	-5.356137439896384E-002	1.000000000000000E+000	8.4898119E+000	2.358281082577176E+000	0.000000000000000E+000	1.597155465020075E-001	2.0003281E-005	1.319856941514038E+005	8.198616416991863E+004	-1.000000000000000E+000	8.198616416991863E+004	-2.990828620061947E-004	1.7136044E-004
2	0	0	0	0	1.359854495772137E+005	-3.5986202E+000	-3.5992453E+000	-8.406600173948930E-002	1.000000000000000E+000	8.1939373E+000	2.276093694898817E+000	0.000000000000000E+000	2.419029341803660E-001	1.4632275E-005	1.359854495772137E+005	8.598591959572851E+004	-1.000000000000000E+000	8.598591959572851E+004	-4.686249627008365E-004	3.0257416E-004
2	0	0	0	0	1.399852074030205E+005	-3.9985995E+000	-3.9992423E+000	-6.848276510224460E-002	1.000000000000000E+000	7.9161091E+000	2.198919190300836E+000	0.000000000000000E+000	3.190774387783475E-001	5.8766796E-006	1.399852074030205E+005	8.998567742153525E+004	-1.000000000000000E+000	8.998567742153525E+004	-3.793504503035727E-004	2.7387918E-004
2	0	0	0	0	1.439849164288240E+005	-4.3985786E+000	-4.3997059E+000	-6.072368179378418E-002	1.000000000000000E+000	7.6530232E+000	2.125839789708456E+000	0.000000000000000E+000	3.921568393707275E-001	-1.7588898E-005	1.439849164288240E+005	9.398538644733874E+004	-1.000000000000000E+000	9.398538644733874E+004	-3.365675608315577E-004	2.6716635E-004
2	0	0	0	0	1.479846254546243E+005	-4.7985592E+000	-4.7997179E+000	-7.195326164118954E-002	1.000000000000000E+000	7.3785119E+000	2.049586640463935E+000	0.000000000000000E+000	4.684099886152482E-001	3.5031458E-006	1.479846254546243E+005	9.798509547313911E+004	-1.000000000000000E+000	9.798509547313911E+004	-3.993511199951172E-004	3.4535537E-004
2	1	0	1	1	1.519503901751149E+005	-4.8049583E+000	-4.8061590E+000	-7.224933487231056E-002	2.000000000000000E+000	7.0912652E+000	1.969795889324612E+000	0.000000000000000E+000	3.952940305074071E-002	4.8244870E-006	1.950901505243091E+003	1.950901505243091E+003	-1.000000000000000E+000	1.950901505243091E+003	-4.014703962538224E-004	3.4724179E-004
2	1	0	1	1	1.559501945009315E+005	-4.4049788E+000	-4.4061708E+000	-6.118584001042193E-002	2.000000000000000E+000	6.8206511E+000	1.894625292883979E+000	0.000000000000000E+000	1.146999994913740E-001	6.1360169E-008	5.950705831059720E+003	5.950705831059720E+003	-1.000000000000000E+000	5.950705831059720E+003	-3.416008419461214E-004	2.6959527E-004
2	1	0	0	1	1.599499965267482E+005	-4.0049992E+000	-4.0060997E+000	-6.002108809870177E-002	2.000000000000000E+000	6.5980554E+000	1.832793156305949E+000	0.000000000000000E+000	1.765321360694039E-001	5.5245404E-005	9.950507856876357E+003	9.950507856876357E+003	-1.000000000000000E+000	9.950507856876357E+003	-3.355079227023161E-004	2.4045046E-004
2	1	0	0	1	1.639498009525621E+005	-3.6050198E+000	-3.6061251E+000	-4.982861966609642E-002	2.000000000000000E+000	6.3786907E+000	1.771858533223470E+000	0.000000000000000E+000	2.374667591518829E-001	-2.1096204E-005	1.395031228269031E+004	1.395031228269031E+004	-1.000000000000000E+000	1.395031228269031E+004	-2.777576446533203E-004	1.7968824E-004
2	1	0	0	1	1.679496039783806E+005	-3.2050400E+000	-3.2061393E+000	-3.422233488130624E-002	2.000000000000000E+000	6.2152658E+000	1.726462708579169E+000	0.000000000000000E+000	2.828625837961836E-001	1.9098261E-005	1.795011530850874E+004	1.795011530850874E+004	-1.000000000000000E+000	1.795011530850874E+004	-1.916620466444474E-004	1.0972157E-004
2	1	0	0	1	1.719494084041952E+005	-2.8050604E+000	-2.8061094E+000	-2.609351044158426E-002	2.000000000000000E+000	6.0936041E+000	1.692667802174886E+000	0.000000000000000E+000	3.166574902004669E-001	5.2048422E-006	2.194991973432340E+004	2.194991973432340E+004	-1.000000000000000E+000	2.194991973432340E+004	-1.450379689535986E-004	7.3221243E-005
2	1	0	1	1	1.759492116300124E+005	-2.4050810E+000	-2.4058871E+000	-1.962587912419894E-002	2.000000000000000E+000	6.0014992E+000	1.667083104451497E+000	0.000000000000000E+000	3.422421879238555E-001	1.5773521E-006	2.594972296014056E+004	2.594972296014056E+004	-1.000000000000000E+000	2.594972296014056E+004	-1.103348202176058E-004	4.7217651E-005
2	1	0	1	1	1.799490158558281E+005	-2.0051012E+000	-2.0059848E+000	-1.178036667536997E-002	2.000000000000000E+000	5.9382958E+000	1.649526622560289E+000	0.000000000000000E+000	3.597986698150637E-001	-3.0638491E-006	2.994952718595628E+004	2.994952718595628E+004	-1.000000000000000E+000	2.994952718595628E+004	-6.556510925292969E-005	2.3631237E-005
2	1	0	1	1	1.839488202816453E+005	-1.6051213E+000	-1.6058067E+000	-8.974051656227999E-003	2.000000000000000E+000	5.8967633E+000	1.637989812427097E+000	0.000000000000000E+000	3.713354799482560E-001	-6.2754430E-007	3.394933161177346E+004	3.394933161177346E+004	-1.000000000000000E+000	3.394933161177346E+004	-4.967053731297355E-005	1.4410592E-005
2	1	0	0	1	1.879486239074606E+005	-1.2051419E+000	-1.2058537E+000	-2.733703058594977E-003	2.000000000000000E+000	5.8723960E+000	1.631221108966403E+000	0.000000000000000E+000	3.781041834089494E-001	4.3130316E-005	3.794913523758878E+004	3.794913523758878E+004	-1.000000000000000E+000	3.794913523758878E+004	-1.509984334324699E-005	3.2964460E-006
2	1	0	1	1	1.919484274332761E+005	-8.0516207E-001	-8.0578464E-001	-5.658432265987992E-005	2.000000000000000E+000	5.8718605E+000	1.631072362263997E+000	0.000000000000000E+000	3.782529301113555E-001	3.0262424E-008	4.194893876340427E+004	4.194893876340427E+004	-1.000000000000000E+000	4.194893876340427E+004	-2.649095323103978E-007	4.5594778E-008
2	1	0	1	1	1.959482296590940E+005	-4.0518257E-001	-4.0566289E-001	-6.349587195809762E-007	2.000000000000000E+000	5.8717642E+000	1.631045606401232E+000	0.000000000000000E+000	0.000000000000000E+000	9.3938333E-009	4.594874098922219E+004	0.000000000000000E+000	-1.000000000000000E+000	-1.000000000000000E+000	0.000000000000000E+000	2.5757918E-010
2	1	0	1	1	1.999480269849091E+005	-5.2029355E-003	-5.6736325E-003	1.132194629333894E-004	2.000000000000000E+000	5.8719726E+000	1.631103489134047E+000	5.536609225798017E-005	0.000000000000000E+000	4.6646846E-008	4.994853831503727E+004	4.994853831503727E+004	4.994853831503727E+004	-1.000000000000000E+000	5.298190646207956E-007	-6.4236561E-010
2	1	0	1	1	2.039138264054043E+005	3.9137667E-001	3.9101407E-001	2.537617026661144E-004	2.000000000000000E+000	5.8727093E+000	1.631308131747776E+000	2.600087059867473E-004	0.000000000000000E+000	3.3010362E-008	5.391433773553243E+004	5.391433773553243E+004	5.391433773553243E+004	-1.000000000000000E+000	1.457002427818210E-006	9.9224394E-008
2	1	0	1	1	2.079136285312187E+005	7.9135615E-001	7.9096711E-001	5.063560554509862E-004	2.000000000000000E+000	5.8741412E+000	1.631705893410577E+000	6.577703687880021E-004	0.000000000000000E+000	5.0063932E-007	5.791413986134692E+004	5.791413986134692E+004	5.791413986134692E+004	-1.000000000000000E+000	2.781550089592244E-006	4.0051097E-007
2	1	0	1	1	2.119134336570376E+005	1.1913356E+000	1.1911026E+000	1.720392952688091E-003	2.000000000000000E+000	5.8772168E+000	1.632560226652357E+000	1.512103610568527E-003	0.000000000000000E+000	-4.1226264E-007	6.191394498716574E+004	6.191394498716574E+004	6.191394498716574E+004	-1.000000000000000E+000	9.536743164062500E-006	2.0491646E-006
2	1	0	1	1	2.159132374828511E+005	1.5913150E+000	1.5910981E+000	5.225250981522611E-002	2.000000000000000E+000	5.9591060E+000	1.655307213465373E+000	2.425909042358398E-002	0.000000000000000E+000	5.8402715E-005	6.591374881297932E+004	6.591374881297932E+004	6.591374881297932E+004	-1.000000000000000E+000	2.868970235190282E-004	8.3138868E-005
2	1	0	1	1	2.199130425086706E+005	1.9912946E+000	1.9911010E+000	8.490019545133531E-002	2.000000000000000E+000	6.1921420E+000	1.720039447148641E+000	8.899132410685207E-002	0.000000000000000E+000	1.4143201E-004	6.991355383879878E+004	6.991355383879878E+004	6.991355383879878E+004	-1.000000000000000E+000	4.612074957952572E-004	1.6904487E-004
2	1	0	0	1	2.239128461344847E+005	2.3912737E+000	2.3907192E+000	3.735566017114067E-001	2.000000000000000E+000	7.0568471E+000	1.960235304302639E+000	3.291871812608507E-001	0.000000000000000E+000	1.0650113E-004	7.391335746461293E+004	7.391335746461293E+004	7.391335746461293E+004	-1.000000000000000E+000	2.076493369208565E-003	8.9306891E-004
2	1	0	0	1	2.279126505603022E+005	2.7912536E+000	2.7908442E+000	4.432948242046517E-001	2.000000000000000E+000	8.7653027E+000	2.434806293911404E+000	8.037581708696153E-001	0.000000000000000E+000	1.6635006E-004	7.791316189043038E+004	7.791316189043038E+004	7.791316189043038E+004	-1.000000000000000E+000	2.449618445502288E-003	1.2371668E-003
2	1	0	0	1	2.319124537861175E+005	3.1912327E+000	3.1907790E+000	3.057010484562841E-001	2.000000000000000E+000	1.0390369E+001	2.886213726467556E+000	1.255165603425768E+000	0.000000000000000E+000	-2.2244538E-004	8.191296511624567E+004	8.191296511624567E+004	8.191296511624567E+004	-1.000000000000000E+000	1.708401574028962E-003	9.7542448E-004
2	1	0	1	1	2.359122604119354E+005	3.5912123E+000	3.5908957E+000	2.587379702188821E-001	2.000000000000000E+000	1.1509931E+001	3.197202947404650E+000	1.566154824362861E+000	0.000000000000000E+000	1.1265616E-005	8.591277174206357E+004	8.591277174206357E+004	8.591277174206357E+004	-1.000000000000000E+000	1.436604393853180E-003	9.2910108E-004
2	1	0	0	1	2.399120636377500E+005	3.9911916E+000	3.9908671E+000	2.914924272087518E-001	2.000000000000000E+000	1.2611350E+001	3.503152794308133E+000	1.872104671266344E+000	0.000000000000000E+000	-7.4722819E-005	8.991257496787817E+004	8.991257496787817E+004	8.991257496787817E+004	-1.000000000000000E+000	1.619391971164230E-003	1.1633076E-003
2	1	0	0	1	2.439118680635677E+005	4.3911710E+000	4.3906326E+000	3.422102563163878E-001	2.000000000000000E+000	1.3943775E+001	3.873270882500543E+000	2.242222759458754E+000	0.000000000000000E+000	2.5608274E-003	9.391237939369585E+004	9.391237939369585E+004	9.391237939369585E+004	-1.000000000000000E+000	1.591046651204575E-003	1.5025195E-003
2	1	0	0	1	2.479306694923558E+005	4.7930498E+000	4.7924962E+000	1.797579985867664E-001	2.000000000000000E+000	1.4515542E+001	4.032095008426243E+000	2.401046885384454E+000	0.000000000000000E+000	2.5583596E-003	9.793118082248396E+004	9.793118082248396E+004	9.793118082248396E+004	-1.000000000000000E+000	9.451972113723173E-004	8.6148951E-004
2	0	0	1	1	2.519114245151905E+005	4.8089495E+000	4.8083634E+000	1.292817026391859E-001	2.000000000000000E+000	1.5482238E+001	4.300621615515815E+000	2.669573492474026E+000	0.000000000000000E+000	-3.4825662E-005	1.019119358453187E+005	1.910861998976470E+003	1.910861998976470E+003	-1.000000000000000E+000	7.263819376630565E-004	6.2163343E-004
2	0	0	1	1	2.559111335409926E+005	4.4089704E+000	4.4084849E+000	1.083768618965386E-001	2.000000000000000E+000	1.5940267E+001	4.427851835886638E+000	2.796803712844849E+000	0.000000000000000E+000	-4.8191116E-005	1.059116448711208E+005	5.910571024778561E+003	5.910571024778561E+003	-1.000000000000000E+000	6.090270148382260E-004	4.7777776E-004
2	0	0	1	1	2.599368395708618E+005	4.0063910E+000	4.0058446E+000	4.011376111237112E+000	2.000000000000000E+000	1.8585688E+001	5.162691010369195E+000	3.531642887327406E+000	0.000000000000000E+000	-6.0469570E-004	1.099373509009900E+005	9.936277054647711E+003	9.936277054647711E+003	-1.000000000000000E+000	2.262857225206183E-002	1.6068948E-002
2	0	0	0	1	2.639365959806086E+005	3.6064115E+000	3.6058342E+000	1.002760136756542E-001	2.000000000000000E+000	2.0062817E+001	5.573004616631402E+000	3.941956493589613E+000	0.000000000000000E+000	1.2017258E-004	1.139371073107368E+005	1.393603346439454E+004	1.393603346439454E+004	-1.000000000000000E+000	5.462434556751106E-004	3.6157868E-004
2	0	0	1	1	2.679383503990686E+005	3.2062316E+000	3.2056677E+000	1.023875443074702E-001	2.000000000000000E+000	2.0465382E+001	5.684828228420681E+000	4.053780105378892E+000	0.000000000000000E+000	1.1353024E-004	1.179388617291967E+005	1.793778788285449E+004	1.793778788285449E+004	-1.000000000000000E+000	5.647871229381707E-004	3.2822046E-004
2	0	0	1	1	2.719381024190169E+005	2.8062525E+000	2.8057108E+000	7.496090411115885E-002	2.000000000000000E+000	2.0824820E+001	5.784672101338704E+000	4.153623978296915E+000	0.000000000000000E+000	1.1957294E-005	1.219386137491451E+005	2.193753990280282E+004	2.193753990280282E+004	-1.000000000000000E+000	4.238552517357164E-004	2.1031861E-004
2	0	0	1	1	2.759378554389607E+005	2.4062729E+000	2.4057345E+000	5.645584355393068E-002	2.000000000000000E+000	2.1074409E+001	5.854002634684245E+000	4.222954511642456E+000	0.000000000000000E+000	1.5406518E-005	1.259383667690889E+005	2.593729292274665E+004	2.593729292274665E+004	-1.000000000000000E+000	3.104739718970961E-004	1.3581777E-004
2	0	0	0	1	2.799376072589066E+005	2.0062933E+000	2.0060644E+000	4.336242272937396E-002	2.000000000000000E+000	2.1268642E+001	5.907956229315864E+000	4.276908106274075E+000	0.000000000000000E+000	-3.8482649E-005	1.299381185890348E+005	2.993704474269252E+004	2.993704474269252E+004	-1.000000000000000E+000	2.442465888128353E-004	8.6987813E-005
2	0	0	1	1	2.839373842788395E+005	1.6063143E+000	1.6058027E+000	2.747700816897891E-002	2.000000000000000E+000	2.1408602E+001	5.946833822462294E+000	4.315785699420505E+000	0.000000000000000E+000	6.2625350E-006	1.339378956089676E+005	3.393682176262539E+004	3.393682176262539E+004	-1.000000000000000E+000	1.515282524957584E-004	4.4122651E-005
2	0	0	0	1	2.879371604987653E+005	1.2063348E+000	1.2059273E+000	2.771689564017717E-002	2.000000000000000E+000	2.1533747E+001	5.981596310933431E+000	4.350548187891642E+000	0.000000000000000E+000	-3.2278713E-006	1.379376718288935E+005	3.793659798255123E+004	3.793659798255123E+004	-1.000000000000000E+000	1.547071668834832E-004	3.3424560E-005
2	0	0	1	1	2.919369436186920E+005	8.0635536E-001	8.0601335E-001	2.224455738400774E-002	2.000000000000000E+000	2.1641911E+001	6.011641820271810E+000	4.380593697230021E+000	0.000000000000000E+000	1.4926592E-006	1.419374549488202E+005	4.193638110247793E+004	4.193638110247793E+004	-1.000000000000000E+000	1.234478420677476E-004	1.7929409E-005
2	0	0	1	1	2.959367323386092E+005	4.0637589E-001	4.0606138E-001	9.977669311429863E-003	2.000000000000000E+000	2.1702669E+001	6.028519206576878E+000	4.397471083535089E+000	0.000000000000000E+000	-3.1744623E-006	1.459372436687374E+005	4.593616982239511E+004	4.593616982239511E+004	-1.000000000000000E+000	5.563100179095670E-005	4.0515461E-006
2	0	0	0	1	2.999365227585193E+005	6.3964701E-003	6.1401781E-003	9.777410241977981E-005	2.000000000000000E+000	2.1721634E+001	6.033787197536892E+000	4.402739074495103E+000	0.000000000000000E+000	-1.7586876E-006	1.499370340886475E+005	4.993596024230521E+004	4.993596024230521E+004	-1.000000000000000E+000	5.298190641767064E-007	6.0035038E-010
2	0	0	0	1	3.039363130784452E+005	-3.9358312E-001	-3.9400643E-001	-7.559995535342298E-003	2.000000000000000E+000	2.1708307E+001	6.030085351732042E+000	0.000000000000000E+000	3.702375623914733E-003	-3.6353510E-006	1.539368244085734E+005	5.393575056223114E+004	-1.000000000000000E+000	5.393575056223114E+004	-4.185570610903966E-005	2.9786868E-006
2	0	0	0	1	3.079361012983723E+005	-7.9356277E-001	-7.9389286E-001	-1.816734631426817E-002	2.000000000000000E+000	2.1647703E+001	6.013250880771214E+000	0.000000000000000E+000	2.053684658474353E-002	-4.0125597E-006	1.579366126285004E+005	5.793553878215820E+004	-1.000000000000000E+000	5.793553878215820E+004	-1.006656222868330E-004	1.4422926E-005
2	0	0	0	1	3.119358840182964E+005	-1.1935425E+000	-1.1938897E+000	-1.591112500520478E-002	2.000000000000000E+000	2.1552231E+001	5.986730787489149E+000	0.000000000000000E+000	4.705693986680792E-002	6.2663894E-006	1.619363953484246E+005	6.193532150208231E+004	-1.000000000000000E+000	6.193532150208231E+004	-9.006924099441704E-005	1.8996128E-005
2	0	0	0	1	3.159356602382222E+005	-1.5935220E+000	-1.5938247E+000	-2.411395149055012E-002	2.000000000000000E+000	2.1454165E+001	5.959490140279134E+000	0.000000000000000E+000	7.429758707682321E-002	-5.6457657E-007	1.659361715683504E+005	6.593509772200816E+004	-1.000000000000000E+000	6.593509772200816E+004	-1.335144042968750E-004	3.8433413E-005
2	0	0	1	1	3.199354365581484E+005	-1.9935015E+000	-1.9937695E+000	-4.131101841403451E-002	2.000000000000000E+000	2.1316868E+001	5.921352174546984E+000	0.000000000000000E+000	1.124355528089733E-001	-5.4844454E-006	1.699359478882765E+005	6.993487404193429E+004	-1.000000000000000E+000	6.993487404193429E+004	-2.294116550016767E-004	8.2364648E-005
2	0	0	1	1	3.239351902780968E+005	-2.3934813E+000	-2.3941491E+000	-3.709808383306824E-002	2.000000000000000E+000	2.1155384E+001	5.876495573255751E+000	0.000000000000000E+000	1.572921541002064E-001	1.7920065E-004	1.739357016082250E+005	7.393462776188276E+004	-1.000000000000000E+000	7.393462776188276E+004	-2.113978068036815E-004	8.8818342E-005
2	0	0	0	1	3.279349420980457E+005	-2.7934606E+000	-2.7940457E+000	-3.923344367862014E-002	2.000000000000000E+000	2.1025942E+001	5.840539402431912E+000	0.000000000000000E+000	1.932483249240455E-001	-7.7236007E-005	1.779354534281739E+005	7.793437958183166E+004	-1.000000000000000E+000	7.793437958183166E+004	-2.092785305451983E-004	1.0962004E-004
2	0	0	1	1	3.319366943165059E+005	-3.1936405E+000	-3.1942623E+000	-7.498336712073661E-002	2.000000000000000E+000	2.0844006E+001	5.790001551310222E+000	0.000000000000000E+000	2.437861760457354E-001	-5.4507965E-004	1.819372056466341E+005	8.193613180029186E+004	-1.000000000000000E+000	8.193613180029186E+004	-3.385543823242188E-004	2.3951654E-004
2	0	0	1	1	3.359384465349633E+005	-3.5938196E+000	-3.5945079E+000	-7.912558429218652E-002	2.000000000000000E+000	2.0559196E+001	5.710887908935547E+000	0.000000000000000E+000	3.228998184204102E-001	4.3071064E-004	1.859389578650915E+005	8.593788401874926E+004	-1.000000000000000E+000	8.593788401874926E+004	-4.990895589189748E-004	2.8441753E-004
2	0	0	0	1	3.399401987534184E+005	-3.9939995E+000	-3.9945483E+000	-8.663083893223300E-002	2.000000000000000E+000	2.0161009E+001	5.600280231899685E+000	0.000000000000000E+000	4.335074954562721E-001	9.7487267E-005	1.899407100835466E+005	8.993963623720434E+004	-1.000000000000000E+000	8.993963623720434E+004	-4.789564344624964E-004	3.4605106E-004
2	0	0	1	1	3.439439035704152E+005	-4.3943787E+000	-4.3954782E+000	-5.901424890522833E-002	2.000000000000000E+000	1.9963530E+001	5.545424885219997E+000	0.000000000000000E+000	4.883628421359596E-001	-2.6014370E-005	1.939444149005434E+005	9.394334105420116E+004	-1.000000000000000E+000	9.394334105420116E+004	-3.231896294488834E-004	2.5939583E-004
2	0	0	1	1	3.479436089903992E+005	-4.7943587E+000	-4.7954264E+000	-1.181324866650164E-001	2.000000000000000E+000	1.9556984E+001	5.432495541042751E+000	0.000000000000000E+000	6.012921863132057E-001	-3.3556961E-004	1.979441203205273E+005	9.794304647418510E+004	-1.000000000000000E+000	9.794304647418510E+004	-6.400214301223173E-004	5.6649564E-004
2	1	0	0	0	3.519113728341779E+005	-4.8089581E+000	-4.8100529E+000	-6.664281201285338E-002	3.000000000000000E+000	1.9194172E+001	5.331714418199327E+000	0.000000000000000E+000	3.795623779296875E-002	-9.2000810E-005	1.910902676261496E+003	1.910902676261496E+003	-1.000000000000000E+000	1.910902676261496E+003	-3.698137071399543E-004	3.2055544E-004
2	1	0	1	0	3.559111712540928E+005	-4.4089785E+000	-4.4101505E+000	-8.580767796892186E-002	3.000000000000000E+000	1.8913263E+001	5.253684255811903E+000	0.000000000000000E+000	1.159864001803932E-001	1.4770213E-004	5.910701096176403E+003	5.910701096176403E+003	-1.000000000000000E+000	5.910701096176403E+003	-4.879633585614940E-004	3.7842477E-004
2	1	0	1	0	3.599109720740053E+005	-4.0089989E+000	-4.0100908E+000	-5.231945287307305E-002	3.000000000000000E+000	1.8658175E+001	5.182826254102919E+000	0.000000000000000E+000	1.868444018893776E-001	4.3951884E-005	9.910501916088862E+003	9.910501916088862E+003	-1.000000000000000E+000	9.910501916088862E+003	-2.951092190217608E-004	2.0980576E-004
2	1	0	1	0	3.639107714939099E+005	-3.6090195E+000	-3.6101565E+000	-5.835860291658368E-002	3.000000000000000E+000	1.8407114E+001	5.113087230258518E+000	0.000000000000000E+000	2.565834257337780E-001	1.7392198E-005	1.391030133599346E+004	1.391030133599346E+004	-1.000000000000000E+000	1.391030133599346E+004	-3.268983629007849E-004	2.1068369E-004
2	1	0	1	0	3.679105723138321E+005	-3.2090397E+000	-3.2100852E+000	-4.543260872819965E-002	3.000000000000000E+000	1.8194613E+001	5.054059028625488E+000	0.000000000000000E+000	3.156116273668079E-001	2.0608899E-005	1.791010215591569E+004	1.791010215591569E+004	-1.000000000000000E+000	1.791010215591569E+004	-2.516640557184147E-004	1.4584254E-004
2	1	0	0	0	3.719103719337371E+005	-2.8090599E+000	-2.8100438E+000	-2.955335604078480E-002	3.000000000000000E+000	1.8043215E+001	5.012004110548231E+000	0.000000000000000E+000	3.576665454440651E-001	1.0521226E-004	2.190990177582065E+004	2.190990177582065E+004	-1.000000000000000E+000	2.190990177582065E+004	-1.711315578889483E-004	8.3046223E-005
2	1	0	0	0	3.759101725536492E+005	-2.4090803E+000	-2.4099774E+000	-1.768596435034639E-002	3.000000000000000E+000	1.7951052E+001	4.986403253343370E+000	0.000000000000000E+000	3.832674026489258E-001	2.5287904E-006	2.590970239573275E+004	2.590970239573275E+004	-1.000000000000000E+000	2.590970239573275E+004	-9.854634602834977E-005	4.2622774E-005
2	1	0	0	0	3.799099721735639E+005	-2.0091009E+000	-2.0099523E+000	-1.280712507460376E-002	3.000000000000000E+000	1.7891771E+001	4.969936476813422E+000	0.000000000000000E+000	3.997341791788740E-001	3.5800540E-006	2.990950201564748E+004	2.990950201564748E+004	-1.000000000000000E+000	2.990950201564748E+004	-7.099575466629204E-005	2.5741710E-005
2	1	0	1	0	3.839097735934658E+005	-1.6091212E+000	-1.6098133E+000	-1.589879425260932E-002	3.000000000000000E+000	1.7845026E+001	4.956951671176487E+000	0.000000000000000E+000	4.127189848158093E-001	-6.7385513E-006	3.390930343554937E+004	3.390930343554937E+004	-1.000000000000000E+000	3.390930343554937E+004	-8.794996473504568E-005	2.5594090E-005
2	1	0	0	0	3.879095730133895E+005	-1.2091416E+000	-1.2098296E+000	-1.014753897601121E-002	3.000000000000000E+000	1.7791239E+001	4.942010773552789E+000	0.000000000000000E+000	4.276598824395075E-001	2.8157178E-006	3.790910285547306E+004	3.790910285547306E+004	-1.000000000000000E+000	3.790910285547306E+004	-5.616082085513341E-005	1.2276792E-005
2	1	0	0	0	3.919093732332947E+005	-8.0916196E-001	-8.0966628E-001	-1.025575641729597E-003	3.000000000000000E+000	1.7770142E+001	4.936150444878472E+000	0.000000000000000E+000	4.335202111138239E-001	1.1848432E-006	4.190890307537827E+004	4.190890307537827E+004	-1.000000000000000E+000	4.190890307537827E+004	-5.828009711272841E-006	8.3037401E-007
2	1	0	1	0	3.959091720532086E+005	-4.0918231E-001	-4.0967277E-001	-1.994367390778652E-004	3.000000000000000E+000	1.7768101E+001	4.935583538479275E+000	0.000000000000000E+000	4.340871175130214E-001	1.7574254E-007	4.590870189529215E+004	4.590870189529215E+004	-1.000000000000000E+000	4.590870189529215E+004	-1.059638130129770E-006	8.1703803E-008
2	1	0	1	0	3.999089655731237E+005	-9.2027318E-003	-9.6845748E-003	4.440707670030420E-005	3.000000000000000E+000	1.7767977E+001	4.935549100240071E+000	0.000000000000000E+000	0.000000000000000E+000	2.3267582E-008	4.990849541520723E+004	0.000000000000000E+000	-1.000000000000000E+000	-1.000000000000000E+000	0.000000000000000E+000	-4.3006365E-010
2	1	0	0	0	4.038747614183761E+005	3.8737684E-001	3.8699991E-001	1.707559800852494E-004	3.000000000000000E+000	1.7768332E+001	4.935647646586101E+000	5.722045898437500E-005	0.000000000000000E+000	7.2201694E-008	5.387429126045969E+004	5.387429126045969E+004	5.387429126045969E+004	-1.000000000000000E+000	1.059638129241591E-006	6.6082549E-008
2	1	0	1	0	4.078745599382832E+005	7.8735632E-001	7.8696895E-001	2.158993123428400E-002	3.000000000000000E+000	1.7791237E+001	4.942010243733724E+000	6.419817606607481E-003	0.000000000000000E+000	-1.0224048E-005	5.787408978036675E+004	5.787408978036675E+004	5.787408978036675E+004	-1.000000000000000E+000	1.223882039385060E-004	1.6990605E-005
2	1	0	0	0	4.118743611581940E+005	1.1873357E+000	1.1869483E+000	4.992259918958775E-002	3.000000000000000E+000	1.7919048E+001	4.977513419257270E+000	4.192299313015369E-002	0.000000000000000E+000	1.6502538E-004	6.187389100027760E+004	6.187389100027760E+004	6.187389100027760E+004	-1.000000000000000E+000	2.585517035589291E-004	5.9255544E-005
2	1	0	1	0	4.158761611766210E+005	1.5875152E+000	1.5872451E+000	3.577400092533174E-001	3.000000000000000E+000	1.8392641E+001	5.109066963195801E+000	1.734765370686846E-001	0.000000000000000E+000	9.0725180E-006	6.587569101870456E+004	6.587569101870456E+004	6.587569101870456E+004	-1.000000000000000E+000	1.985232035319306E-003	5.6782109E-004
2	1	0	0	0	4.198759629965234E+005	1.9874947E+000	1.9872915E+000	1.054299019128054E+000	3.000000000000000E+000	2.0992531E+001	5.831258561876085E+000	8.956681357489691E-001	0.000000000000000E+000	-1.6355226E-004	6.987549283860694E+004	6.987549283860694E+004	6.987549283860694E+004	-1.000000000000000E+000	5.888409084744417E-003	2.0951994E-003
2	1	0	1	0	4.238757632164415E+005	2.3874738E+000	2.3869500E+000	4.544493782022272E+000	3.000000000000000E+000	2.8300583E+001	7.861273023817274E+000	2.925682597690158E+000	0.000000000000000E+000	1.3400211E-003	7.387529305852507E+004	7.387529305852507E+004	7.387529305852507E+004	-1.000000000000000E+000	2.518230014377121E-002	1.0847479E-002
2	1	0	1	0	4.278755640363514E+005	2.7874534E+000	2.7870083E+000	5.088292885471532E+000	3.000000000000000E+000	4.8731316E+001	1.353647655910916E+001	8.600886132982042E+000	0.000000000000000E+000	-5.7704456E-004	7.787509387843497E+004	7.787509387843497E+004	7.787509387843497E+004	-1.000000000000000E+000	2.817153930664063E-002	1.4181115E-002
2	1	0	0	0	4.318753634562586E+005	3.1874325E+000	3.1870587E+000	4.669659671300074E+000	3.000000000000000E+000	6.8944481E+001	1.915124469333225E+001	1.421565426720513E+001	0.000000000000000E+000	-2.2454027E-003	8.187489329834213E+004	8.187489329834213E+004	8.187489329834213E+004	-1.000000000000000E+000	2.596749199761206E-002	1.4882480E-002
2	1	0	1	0	4.358751654761788E+005	3.5874119E+000	3.5870512E+000	5.204603518155977E+000	3.000000000000000E+000	8.9849884E+001	2.495830112033420E+001	2.002271069420708E+001	0.000000000000000E+000	8.1492988E-003	8.587469531826233E+004	8.587469531826233E+004	8.587469531826233E+004	-1.000000000000000E+000	2.836015489366517E-002	1.8669179E-002
2	1	0	1	0	4.398749661960825E+005	3.9873919E+000	3.9871111E+000	2.888908649619719E+000	3.000000000000000E+000	1.0875336E+002	3.020926793416341E+001	2.527367750803629E+001	0.000000000000000E+000	-1.1922482E-003	8.987449603816611E+004	8.987449603816611E+004	8.987449603816611E+004	-1.000000000000000E+000	1.619762844509509E-002	1.1518400E-002
2	1	0	1	0	4.438747681159917E+005	4.3873711E+000	4.3868594E+000	2.839574988237686E+000	3.000000000000000E+000	1.2002898E+002	3.334138234456380E+001	2.840579191843669E+001	0.000000000000000E+000	5.6850240E-003	9.387429795807530E+004	9.387429795807530E+004	9.387429795807530E+004	-1.000000000000000E+000	1.528845893012232E-002	1.2456817E-002
2	1	0	0	0	4.478785671329298E+005	4.7877498E+000	4.7871947E+000	1.617484714272289E+000	3.000000000000000E+000	1.3048433E+002	3.624564700656467E+001	3.131005658043755E+001	0.000000000000000E+000	5.5614556E-003	9.787809697501338E+004	9.787809697501338E+004	9.787809697501338E+004	-1.000000000000000E+000	7.319980197479481E-003	7.7432143E-003
2	0	0	1	0	4.518523161722492E+005	4.8149486E+000	4.8144097E+000	1.632640806405359E+000	3.000000000000000E+000	1.3775195E+002	3.826443142361111E+001	3.332884099748400E+001	0.000000000000000E+000	1.7559653E-003	1.018518460143327E+005	1.850862121000420E+003	1.850862121000420E+003	-1.000000000000000E+000	8.845859103736586E-003	7.8602014E-003
2	0	0	1	0	4.558520215922240E+005	4.4149694E+000	4.4144020E+000	1.284969109983567E+000	3.000000000000000E+000	1.4275021E+002	3.965283711751302E+001	3.471724669138591E+001	0.000000000000000E+000	-5.5168034E-003	1.058515514343076E+005	5.850567540975288E+003	5.850567540975288E+003	-1.000000000000000E+000	7.413228352866952E-003	5.6723701E-003
2	0	0	1	0	4.598517270122189E+005	4.0149899E+000	4.0143852E+000	7.930260902180977E-001	3.000000000000000E+000	1.4653755E+002	4.070487552218967E+001	3.576928509606255E+001	0.000000000000000E+000	4.2776618E-004	1.098512568543025E+005	9.850272960970178E+003	9.850272960970178E+003	-1.000000000000000E+000	4.378424750427712E-003	3.1835122E-003
2	0	0	0	0	4.638514812321607E+005	3.6150107E+000	3.6144540E+000	7.028163231139128E-001	3.000000000000000E+000	1.4953679E+002	4.153799692789713E+001	3.660240650177002E+001	0.000000000000000E+000	-1.9634150E-005	1.138510110742443E+005	1.385002718091197E+004	1.385002718091197E+004	-1.000000000000000E+000	3.903706868484846E-003	2.5402973E-003
2	0	0	0	0	4.678512354521025E+005	3.2150309E+000	3.2144480E+000	6.147546020053021E-001	3.000000000000000E+000	1.5210544E+002	4.225151062011719E+001	3.731592019399007E+001	0.000000000000000E+000	6.3150583E-005	1.178507652941861E+005	1.784978140085377E+004	1.784978140085377E+004	-1.000000000000000E+000	3.403557671440183E-003	1.9760968E-003
2	0	0	0	0	4.718509874720480E+005	2.8150518E+000	2.8145378E+000	5.053608783423744E-001	3.000000000000000E+000	1.5427200E+002	4.285333421495226E+001	3.791774378882514E+001	0.000000000000000E+000	-5.0508756E-005	1.218505173141316E+005	2.184953342079930E+004	2.184953342079930E+004	-1.000000000000000E+000	2.805921766494635E-003	1.4223573E-003
2	0	0	0	0	4.758507404919919E+005	2.4150722E+000	2.4145889E+000	4.733821979944115E-001	3.000000000000000E+000	1.5628485E+002	4.341245863172743E+001	3.847686820560032E+001	0.000000000000000E+000	-3.7134305E-005	1.258502703340754E+005	2.584928644074313E+004	2.584928644074313E+004	-1.000000000000000E+000	2.627902560767836E-003	1.1430234E-003
2	0	0	0	0	4.798524927104488E+005	2.0148928E+000	2.0145371E+000	5.137120430561879E-001	3.000000000000000E+000	1.5929562E+002	4.424878438313802E+001	3.931319395701091E+001	0.000000000000000E+000	5.1248251E-005	1.298520225525324E+005	2.985103865920007E+004	2.985103865920007E+004	-1.000000000000000E+000	2.852545844184817E-003	1.0348919E-003
2	0	0	1	0	4.838522689303812E+005	1.6149139E+000	1.6144991E+000	3.877939314260992E-001	3.000000000000000E+000	1.6114026E+002	4.476118299696181E+001	3.982559257083469E+001	0.000000000000000E+000	-1.0261661E-005	1.338517987724647E+005	3.385081487913243E+004	3.385081487913243E+004	-1.000000000000000E+000	2.157423231338385E-003	6.2609295E-004
2	0	0	1	0	4.878520459503140E+005	1.2149343E+000	1.2145693E+000	2.396628667301268E-001	3.000000000000000E+000	1.6240680E+002	4.511299981011285E+001	4.017740938398573E+001	0.000000000000000E+000	9.1431201E-007	1.378515757923976E+005	3.785059189906530E+004	3.785059189906530E+004	-1.000000000000000E+000	1.330905490448231E-003	2.9108717E-004
2	0	0	1	0	4.918518284702376E+005	8.1495488E-001	8.1451565E-001	1.419179642507382E-001	3.000000000000000E+000	1.6316580E+002	4.532383388943143E+001	4.038824346330431E+001	0.000000000000000E+000	-1.1622931E-005	1.418513583123211E+005	4.185037441898882E+004	4.185037441898882E+004	-1.000000000000000E+000	7.841322157133845E-004	1.1559440E-004
2	0	0	0	0	4.958516170901516E+005	4.1497543E-001	4.1457430E-001	5.733087123148384E-002	3.000000000000000E+000	1.6356003E+002	4.543334113226997E+001	4.049775070614285E+001	0.000000000000000E+000	-4.3247364E-005	1.458511469322352E+005	4.585016303890292E+004	4.585016303890292E+004	-1.000000000000000E+000	3.178914388044518E-004	2.3767905E-005
2	0	0	0	0	4.998514077100781E+005	1.4996028E-002	1.4639301E-002	9.872647662719069E-004	3.000000000000000E+000	1.6366747E+002	4.546318478054471E+001	4.052759435441759E+001	0.000000000000000E+000	-6.8466907E-006	1.498509375521616E+005	4.984995365882933E+004	4.984995365882933E+004	-1.000000000000000E+000	4.238552520519079E-006	1.4452866E-008
2	0	0	0	0	5.038531981285103E+005	-3.8518354E-001	-3.8550732E-001	-2.723695297285481E-002	3.000000000000000E+000	1.6361903E+002	4.544973161485460E+001	0.000000000000000E+000	1.346588134765625E-002	-2.1658402E-006	1.538527279705938E+005	5.385174407726154E+004	-1.000000000000000E+000	5.385174407726154E+004	-1.483493381115863E-004	1.0500044E-005
2	0	0	1	0	5.078529862484243E+005	-7.8516328E-001	-7.8550404E-001	-9.748186949309584E-002	3.000000000000000E+000	1.6335526E+002	4.537645975748698E+001	0.000000000000000E+000	8.673773871527857E-002	-8.3975952E-005	1.578525160905079E+005	5.785153219717555E+004	-1.000000000000000E+000	5.785153219717555E+004	-5.382961697080191E-004	7.6572403E-005
2	0	0	0	0	5.118527684683483E+005	-1.1851429E+000	-1.1855729E+000	-1.157660434781078E-001	3.000000000000000E+000	1.6293628E+002	4.526007758246528E+001	0.000000000000000E+000	2.031199137369768E-001	2.8525770E-004	1.618522983104319E+005	6.185131441709958E+004	-1.000000000000000E+000	6.185131441709958E+004	-6.442599826357309E-004	1.3724908E-004
2	0	0	0	0	5.158525452882815E+005	-1.5851225E+000	-1.5854073E+000	-2.069481059258909E-001	3.000000000000000E+000	1.6238078E+002	4.510577307807075E+001	0.000000000000000E+000	3.574244181315080E-001	-2.8946289E-004	1.658520751303651E+005	6.585109123703279E+004	-1.000000000000000E+000	6.585109123703279E+004	-1.123216417099115E-003	3.2809703E-004
2	0	0	1	0	5.198523211082164E+005	-1.9851019E+000	-1.9853616E+000	-2.773804318577922E-001	3.000000000000000E+000	1.6136726E+002	4.482423994276259E+001	0.000000000000000E+000	6.389575534396670E-001	-1.9275445E-004	1.698518509503000E+005	6.985086705696769E+004	-1.000000000000000E+000	6.985086705696769E+004	-1.525878906250000E-003	5.5070047E-004
2	0	0	1	0	5.238520747281592E+005	-2.3850815E+000	-2.3857548E+000	-3.427351444866951E-001	3.000000000000000E+000	1.6016808E+002	4.449113210042318E+001	0.000000000000000E+000	9.720653957790759E-001	-1.1528906E-003	1.738516045702428E+005	7.385062067691050E+004	-1.000000000000000E+000	7.385062067691050E+004	-1.932779947914298E-003	8.1768201E-004
2	0	0	1	0	5.278518248487469E+005	-2.7850611E+000	-2.7857471E+000	-3.834508607551901E-001	3.000000000000000E+000	1.5889687E+002	4.413801829020182E+001	0.000000000000000E+000	1.325179206000435E+000	-5.0396542E-004	1.778513546908305E+005	7.785037079749815E+004	-1.000000000000000E+000	7.785037079749815E+004	-2.140469021270519E-003	1.0681971E-003
2	0	0	1	0	5.318515761614610E+005	-3.1850405E+000	-3.1856480E+000	-3.147824431324333E-001	3.000000000000000E+000	1.5764804E+002	4.379112243652344E+001	0.000000000000000E+000	1.672075059678818E+000	1.5577661E-004	1.818511060035445E+005	8.185012211021222E+004	-1.000000000000000E+000	8.185012211021222E+004	-1.763237847221433E-003	1.0027861E-003
2	0	0	0	0	5.358513260741774E+005	-3.5850201E+000	-3.5856886E+000	-2.012498593843124E-001	3.000000000000000E+000	1.5661264E+002	4.350351121690538E+001	0.000000000000000E+000	1.959686279296875E+000	-4.7891409E-004	1.858508559162610E+005	8.584987202292867E+004	-1.000000000000000E+000	8.584987202292867E+004	-1.123216417099115E-003	7.2161935E-004
2	0	0	0	0	5.398510771868918E+005	-3.9850004E+000	-3.9855907E+000	-2.335690020611922E-001	3.000000000000000E+000	1.5565494E+002	4.323748270670573E+001	0.000000000000000E+000	2.225714789496529E+000	1.9679834E-004	1.898506070289754E+005	8.984962313564308E+004	-1.000000000000000E+000	8.984962313564308E+004	-1.305474175346433E-003	9.3091046E-004
2	0	0	0	0	5.438507806996573E+005	-4.3849797E+000	-4.3861313E+000	-2.163653841540754E-001	3.000000000000000E+000	1.5473573E+002	4.298214806450738E+001	0.000000000000000E+000	2.481049431694878E+000	1.6578613E-004	1.938503105417409E+005	9.384932664840855E+004	-1.000000000000000E+000	9.384932664840855E+004	-1.207987467445548E-003	9.4900699E-004
2	0	0	0	0	5.478504842124227E+005	-4.7849598E+000	-4.7861004E+000	-1.744909709183240E-001	3.000000000000000E+000	1.5389577E+002	4.274882422553168E+001	0.000000000000000E+000	2.714373270670571E+000	-5.4224441E-004	1.978500140545063E+005	9.784903016117401E+004	-1.000000000000000E+000	9.784903016117401E+004	-9.748670789946345E-004	8.3513133E-004
2	1	0	1	1	5.518322439471213E+005	-4.8169570E+000	-4.8180928E+000	-2.002599736775288E-001	4.000000000000000E+000	1.5309186E+002	4.252551608615451E+001	0.000000000000000E+000	9.984334309896070E-002	-2.8191859E-004	1.830905462811701E+003	1.830905462811701E+003	-1.000000000000000E+000	1.830905462811701E+003	-1.102023654517836E-003	9.6487114E-004
2	1	0	1	1	5.558320426597800E+005	-4.4169779E+000	-4.4180241E+000	-1.246858188155153E-001	4.000000000000000E+000	1.5245094E+002	4.234748416476779E+001	0.000000000000000E+000	2.778752644856795E-001	-5.5243156E-005	5.830704175470397E+003	5.830704175470397E+003	-1.000000000000000E+000	5.830704175470397E+003	-6.908840603330191E-004	5.5086496E-004
2	1	0	1	1	5.598318415724430E+005	-4.0169983E+000	-4.0180540E+000	-9.872909805741292E-002	4.000000000000000E+000	1.5202872E+002	4.223019917805990E+001	0.000000000000000E+000	3.951602511935732E-001	7.6381999E-005	9.830503088133410E+003	9.830503088133410E+003	-1.000000000000000E+000	9.830503088133410E+003	-5.510118272553655E-004	3.9669886E-004
2	1	0	0	1	5.638316380851101E+005	-3.6170189E+000	-3.6181142E+000	-7.598194438748293E-002	4.000000000000000E+000	1.5168967E+002	4.213601854112413E+001	0.000000000000000E+000	4.893408881293411E-001	-6.1738414E-005	1.383029960080050E+004	1.383029960080050E+004	-1.000000000000000E+000	1.383029960080050E+004	-4.196166992187500E-004	2.7491135E-004
2	1	0	0	1	5.678314355977576E+005	-3.2170391E+000	-3.2180839E+000	-6.132249063800610E-002	4.000000000000000E+000	1.5143089E+002	4.206413692898221E+001	0.000000000000000E+000	5.612225002712634E-001	-1.1469988E-005	1.783009711344796E+004	1.783009711344796E+004	-1.000000000000000E+000	1.783009711344796E+004	-3.390842013857309E-004	1.9734092E-004
2	1	0	0	1	5.718312345104087E+005	-2.8170595E+000	-2.8181188E+000	-4.707949991791856E-002	4.000000000000000E+000	1.5120879E+002	4.200244055853950E+001	0.000000000000000E+000	6.229188707139741E-001	-1.9607540E-005	2.182989602609910E+004	2.182989602609910E+004	-1.000000000000000E+000	2.182989602609910E+004	-2.585517035598173E-004	1.3267562E-004
2	1	0	1	1	5.758310322230738E+005	-2.4170802E+000	-2.4179876E+000	-3.900054952693355E-002	4.000000000000000E+000	1.5103905E+002	4.195529090033637E+001	0.000000000000000E+000	6.700685289170991E-001	-1.6999596E-006	2.582969373876415E+004	2.582969373876415E+004	-1.000000000000000E+000	2.582969373876415E+004	-2.161661783830482E-004	9.4302843E-005
2	1	0	1	1	5.798308309357371E+005	-2.0171003E+000	-2.0179019E+000	-3.672509701066951E-002	4.000000000000000E+000	1.5091226E+002	4.192007276746962E+001	0.000000000000000E+000	7.052866617838518E-001	1.1687657E-005	2.982949245142750E+004	2.982949245142750E+004	-1.000000000000000E+000	2.982949245142750E+004	-2.034505208285964E-004	7.4107644E-005
2	1	0	1	1	5.838306292483928E+005	-1.6171206E+000	-1.6177696E+000	-1.788412237900038E-002	4.000000000000000E+000	1.5079973E+002	4.188881344265408E+001	0.000000000000000E+000	7.365459865993884E-001	1.5505017E-005	3.382929076408315E+004	3.382929076408315E+004	-1.000000000000000E+000	3.382929076408315E+004	-1.017252604142982E-004	2.8932389E-005
2	1	0	1	1	5.878304281610344E+005	-1.2171412E+000	-1.2177982E+000	-5.321572478825609E-002	4.000000000000000E+000	1.5074037E+002	4.187232547336154E+001	0.000000000000000E+000	7.530339558919295E-001	1.2264146E-004	3.782908967672475E+004	3.782908967672475E+004	-1.000000000000000E+000	3.782908967672475E+004	-3.348456488723173E-004	6.4806016E-005
2	1	0	1	1	5.918322257712558E+005	-8.1696153E-001	-8.1756616E-001	-1.210187854084048E-001	4.000000000000000E+000	1.5022726E+002	4.172979566786024E+001	0.000000000000000E+000	8.955637613932268E-001	2.5004925E-005	4.183088728694618E+004	4.183088728694618E+004	-1.000000000000000E+000	4.183088728694618E+004	-6.696912977446345E-004	9.8940865E-005
2	1	0	0	1	5.958320224839225E+005	-4.1698197E-001	-4.1753983E-001	-6.230305001079439E-002	4.000000000000000E+000	1.4985947E+002	4.162762959798177E+001	0.000000000000000E+000	9.977298312716982E-001	1.6522037E-005	4.583068399961293E+004	4.583068399961293E+004	-1.000000000000000E+000	4.583068399961293E+004	-3.475613064196637E-004	2.6014006E-005
2	1	0	0	1	5.998318142965857E+005	-1.7002335E-002	-1.7439207E-002	1.739640949543082E-005	4.000000000000000E+000	1.4975008E+002	4.159724341498481E+001	0.000000000000000E+000	0.000000000000000E+000	7.1434054E-009	4.983047581227613E+004	0.000000000000000E+000	-1.000000000000000E+000	-1.000000000000000E+000	0.000000000000000E+000	-3.0337960E-010
2	1	0	1	1	6.037956083532274E+005	3.7937731E-001	3.7904701E-001	1.218512779258751E-002	4.000000000000000E+000	1.4975620E+002	4.159894307454427E+001	1.678466796875000E-003	0.000000000000000E+000	2.5455890E-006	5.379426986891776E+004	5.379426986891776E+004	5.379426986891776E+004	-1.000000000000000E+000	6.781684027856727E-005	4.6187361E-006
2	1	0	0	1	6.077954045658950E+005	7.7935666E-001	7.7889818E-001	2.881959152141778E-002	4.000000000000000E+000	1.4981856E+002	4.161626603868272E+001	1.900143093532591E-002	0.000000000000000E+000	7.3119045E-005	5.779406608158536E+004	5.779406608158536E+004	5.779406608158536E+004	-1.000000000000000E+000	1.525878906250000E-004	2.2447528E-005
2	1	0	1	1	6.117952046785560E+005	1.1793361E+000	1.1790727E+000	2.731732280493756E-002	4.000000000000000E+000	1.4994824E+002	4.165228949652778E+001	5.502488878038037E-002	0.000000000000000E+000	-5.3533877E-006	6.179386619424634E+004	6.179386619424634E+004	6.179386619424634E+004	-1.000000000000000E+000	1.568264431455191E-004	3.2209111E-005
2	1	0	0	1	6.157950021912102E+005	1.5793155E+000	1.5789516E+000	3.242742846088902E-001	4.000000000000000E+000	1.5079921E+002	4.188866933186849E+001	2.914047241210938E-001	0.000000000000000E+000	6.7880728E-006	6.579366370690055E+004	6.579366370690055E+004	6.579366370690055E+004	-1.000000000000000E+000	1.792907714843750E-003	5.1201339E-004
2	1	0	1	1	6.197948017038535E+005	1.9792951E+000	1.9790745E+000	9.357810933469306E-001	4.000000000000000E+000	1.5348993E+002	4.263609144422743E+001	1.038826836480034E+000	0.000000000000000E+000	-5.2530592E-004	6.979346321954392E+004	6.979346321954392E+004	6.979346321954392E+004	-1.000000000000000E+000	5.221896701392836E-003	1.8519805E-003
2	1	0	1	1	6.237946006165165E+005	2.3792739E+000	2.3787761E+000	1.606638236643864E+000	4.000000000000000E+000	1.5900433E+002	4.416787041558160E+001	2.570605807834198E+000	0.000000000000000E+000	3.7494968E-004	7.379326213220693E+004	7.379326213220693E+004	7.379326213220693E+004	-1.000000000000000E+000	8.905198838974115E-003	3.8218326E-003
2	1	0	1	1	6.277943981291819E+005	2.7792540E+000	2.7788398E+000	2.024845510736093E+000	4.000000000000000E+000	1.6622656E+002	4.617404513888889E+001	4.576780531141488E+000	0.000000000000000E+000	-9.7460950E-005	7.779305964487232E+004	7.779305964487232E+004	7.779305964487232E+004	-1.000000000000000E+000	1.121944851345091E-002	5.6267213E-003
2	1	0	1	1	6.317941970418449E+005	3.1792333E+000	3.1788533E+000	2.718782749681665E+000	4.000000000000000E+000	1.7599933E+002	4.888870239257813E+001	7.291437784830727E+000	0.000000000000000E+000	2.9213622E-004	8.179285855753534E+004	8.179285855753534E+004	8.179285855753534E+004	-1.000000000000000E+000	1.510196261935448E-002	8.6426111E-003
2	1	0	1	1	6.357939971544868E+005	3.5792124E+000	3.5788872E+000	2.445244048867254E+000	4.000000000000000E+000	1.8639346E+002	5.177596198187934E+001	1.017869737413194E+001	0.000000000000000E+000	-5.1053060E-004	8.579265867017722E+004	8.579265867017722E+004	8.579265867017722E+004	-1.000000000000000E+000	1.360151502821338E-002	8.7512527E-003
2	1	0	1	1	6.397937958671395E+005	3.9791918E+000	3.9789138E+000	1.303953493230207E+000	4.000000000000000E+000	1.9170151E+002	5.325041876898872E+001	1.165315416124132E+001	0.000000000000000E+000	-3.5214052E-004	8.979245738282986E+004	8.979245738282986E+004	8.979245738282986E+004	-1.000000000000000E+000	7.252163357208019E-003	5.1883184E-003
2	1	0	1	1	6.437935947798025E+005	4.3791709E+000	4.3786540E+000	6.718155880472869E-001	4.000000000000000E+000	1.9574681E+002	5.437411414252387E+001	1.277684953477647E+001	0.000000000000000E+000	-2.0713925E-003	9.379225629549287E+004	9.379225629549287E+004	9.379225629549287E+004	-1.000000000000000E+000	3.772311740455336E-003	2.9416480E-003
2	1	0	1	1	6.477953938900214E+005	4.7793508E+000	4.7787695E+000	8.586166860644155E-001	4.000000000000000E+000	1.9919438E+002	5.533177269829644E+001	1.373450809054904E+001	0.000000000000000E+000	-1.8799315E-003	9.779405540571176E+004	9.779405540571176E+004	9.779405540571176E+004	-1.000000000000000E+000	4.937913682724115E-003	4.1031311E-003
2	0	0	0	1	6.517731462296154E+005	4.8229480E+000	4.8224115E+000	5.657589878261486E-001	4.000000000000000E+000	2.0232661E+002	5.620183732774522E+001	1.460457271999783E+001	0.000000000000000E+000	-1.3586341E-003	1.017718077453058E+005	1.770871736178175E+003	1.770871736178175E+003	-1.000000000000000E+000	3.242492675781250E-003	2.7283228E-003
2	0	0	1	1	6.557748477399405E+005	4.4227691E+000	4.4221730E+000	6.572514786867231E-001	4.000000000000000E+000	2.0415521E+002	5.670978122287326E+001	1.511251661512586E+001	0.000000000000000E+000	8.0533774E-004	1.057735092556309E+005	5.772573246503249E+003	5.772573246503249E+003	-1.000000000000000E+000	3.763834635414298E-003	2.9064799E-003
2	0	0	1	1	6.597765514502618E+005	4.0225897E+000	4.0219302E+000	4.131699629383121E-001	4.000000000000000E+000	2.0610207E+002	5.725057390001085E+001	1.565330929226345E+001	0.000000000000000E+000	5.0954600E-006	1.097752129659522E+005	9.774276956824586E+003	9.774276956824586E+003	-1.000000000000000E+000	2.288818359375000E-003	1.6617407E-003
2	0	0	0	1	6.637763013629783E+005	3.6226101E+000	3.6220527E+000	4.923311424218504E-001	4.000000000000000E+000	2.0798772E+002	5.777436574300130E+001	1.617710113525391E+001	0.000000000000000E+000	8.1432296E-004	1.137749628786687E+005	1.377402686954103E+004	1.377402686954103E+004	-1.000000000000000E+000	2.678765190971433E-003	1.7832493E-003
2	0	0	0	1	6.677760525756925E+005	3.2226310E+000	3.2219627E+000	3.986569647957230E-001	4.000000000000000E+000	2.0979938E+002	5.827760484483507E+001	1.668034023708767E+001	0.000000000000000E+000	9.2641516E-005	1.177747140913829E+005	1.777377808225527E+004	1.777377808225527E+004	-1.000000000000000E+000	2.216762966575914E-003	1.2844579E-003
2	0	0	0	1	6.717758037884068E+005	2.8226514E+000	2.8221869E+000	5.341079435738667E-001	4.000000000000000E+000	2.1175455E+002	5.882070753309462E+001	1.722344292534722E+001	0.000000000000000E+000	-1.7228187E-004	1.217744653040972E+005	2.177352929496951E+004	2.177352929496951E+004	-1.000000000000000E+000	2.966986762153567E-003	1.5073525E-003
2	0	0	0	1	6.757755549011226E+005	2.4226720E+000	2.4221416E+000	7.474397062373352E-001	4.000000000000000E+000	2.1375040E+002	5.937511020236545E+001	1.777784559461805E+001	0.000000000000000E+000	-6.4318965E-004	1.257742164168130E+005	2.577328040768532E+004	2.577328040768532E+004	-1.000000000000000E+000	4.158020019531250E-003	1.8104048E-003
2	0	0	1	1	6.797753048138386E+005	2.0226927E+000	2.0223150E+000	6.262585374627569E-001	4.000000000000000E+000	2.1651186E+002	6.014218224419488E+001	1.854491763644748E+001	0.000000000000000E+000	4.2652675E-005	1.297739663295290E+005	2.977303032040130E+004	2.977303032040130E+004	-1.000000000000000E+000	3.479851616752683E-003	1.2664921E-003
2	0	0	1	1	6.837750787265431E+005	1.6227132E+000	1.6222823E+000	5.040096636657652E-001	4.000000000000000E+000	2.1876112E+002	6.076697879367404E+001	1.916971418592664E+001	0.000000000000000E+000	-2.6747084E-005	1.337737402422335E+005	3.377280423310585E+004	3.377280423310585E+004	-1.000000000000000E+000	2.801683213974115E-003	8.1764592E-004
2	0	0	0	1	6.877748530392181E+005	1.2227340E+000	1.2222816E+000	4.675653712636612E-001	4.000000000000000E+000	2.2071072E+002	6.130853441026476E+001	1.971126980251736E+001	0.000000000000000E+000	-1.0871743E-004	1.377735145549085E+005	3.777257854578085E+004	3.777257854578085E+004	-1.000000000000000E+000	2.598232693138414E-003	5.7149655E-004
2	0	0	0	1	6.917746330519132E+005	8.2275450E-001	8.2235622E-001	2.864016367516897E-001	4.000000000000000E+000	2.2220457E+002	6.172349294026693E+001	2.012622833251953E+001	0.000000000000000E+000	3.5187091E-005	1.417732945676036E+005	4.177235855847597E+004	4.177235855847597E+004	-1.000000000000000E+000	1.585218641494635E-003	2.3552417E-004
2	0	0	1	1	6.957744199645668E+005	4.2277506E-001	4.2243075E-001	1.253570532231665E-001	4.000000000000000E+000	2.2301968E+002	6.194991217719184E+001	2.035264756944444E+001	0.000000000000000E+000	-3.7273850E-005	1.457730814802572E+005	4.577214547112957E+004	4.577214547112957E+004	-1.000000000000000E+000	6.951226128464327E-004	5.2954674E-005
2	0	0	0	1	6.997742085772473E+005	2.2795627E-002	2.2539226E-002	1.188995619790027E-003	4.000000000000000E+000	2.2319606E+002	6.199890560574002E+001	2.040164099799262E+001	0.000000000000000E+000	-5.5730738E-006	1.497728700929377E+005	4.977193408381008E+004	4.977193408381008E+004	-1.000000000000000E+000	8.477105041038158E-006	2.6799041E-008
2	0	0	0	1	7.037739972899086E+005	-3.7718397E-001	-3.7753105E-001	-1.705263261839185E-002	4.000000000000000E+000	2.2316370E+002	6.198991563585069E+001	0.000000000000000E+000	9.019639756942865E-003	-6.3867624E-006	1.537726588055990E+005	5.377172279647132E+004	-1.000000000000000E+000	5.377172279647132E+004	-9.324815538036546E-005	6.4378983E-006
2	0	0	0	1	7.077737835025825E+005	-7.7716351E-001	-7.7758819E-001	-2.775699091607949E-002	4.000000000000000E+000	2.2305791E+002	6.196052975124783E+001	0.000000000000000E+000	3.840552435980271E-002	5.8034715E-005	1.577724450182728E+005	5.777150900914520E+004	-1.000000000000000E+000	5.777150900914520E+004	-1.610649956589327E-004	2.1583508E-005
2	0	0	1	1	7.117735651152642E+005	-1.1771432E+000	-1.1775615E+000	-1.966941104104163E-001	4.000000000000000E+000	2.2280936E+002	6.189148796929253E+001	0.000000000000000E+000	1.074473063151018E-001	1.4518619E-004	1.617722266309545E+005	6.177129062182689E+004	-1.000000000000000E+000	6.177129062182689E+004	-1.097785101997317E-003	2.3161941E-004
2	0	0	0	1	7.157753392255064E+005	-1.5773227E+000	-1.5775868E+000	-2.243929653332649E-001	4.000000000000000E+000	2.2212769E+002	6.170213487413194E+001	0.000000000000000E+000	2.968004014756929E-001	1.6768763E-003	1.657740007411968E+005	6.577306473206915E+004	-1.000000000000000E+000	6.577306473206915E+004	-1.445346408424086E-003	3.5399938E-004
2	0	0	1	1	7.197771133357380E+005	-1.9775023E+000	-1.9777458E+000	-7.298672706733678E-002	4.000000000000000E+000	2.2171156E+002	6.158654530843099E+001	0.000000000000000E+000	4.123899671766438E-001	3.5598467E-005	1.697757748514283E+005	6.977483884230070E+004	-1.000000000000000E+000	6.977483884230070E+004	-4.069010416642982E-004	1.4434919E-004
2	0	0	0	1	7.237768650484513E+005	-2.3774817E+000	-2.3781805E+000	-2.968702303059350E-001	4.000000000000000E+000	2.2125911E+002	6.146086374918620E+001	0.000000000000000E+000	5.380715264214402E-001	-7.3954591E-004	1.737755265641417E+005	7.377459055501409E+004	-1.000000000000000E+000	7.377459055501409E+004	-1.102023654517836E-003	7.0601102E-004
2	0	0	1	1	7.277806157562789E+005	-2.7778616E+000	-2.7785206E+000	-2.292632672229740E-001	4.000000000000000E+000	2.2057739E+002	6.127149793836806E+001	0.000000000000000E+000	7.274373372395786E-001	-5.0371473E-005	1.777792772719692E+005	7.777834126284160E+004	-1.000000000000000E+000	7.777834126284160E+004	-1.267327202690183E-003	6.3701271E-004
2	0	0	1	1	7.317803668689933E+005	-3.1778412E+000	-3.1785228E+000	-2.803914025936427E-001	4.000000000000000E+000	2.1946756E+002	6.096321105957031E+001	0.000000000000000E+000	1.035724216037323E+000	2.4432110E-004	1.817790283846837E+005	8.177809237555601E+004	-1.000000000000000E+000	8.177809237555601E+004	-1.559787326385731E-003	8.9123048E-004
2	0	0	0	1	7.357821171792662E+005	-3.5780206E+000	-3.5786581E+000	-2.962463206848707E-001	4.000000000000000E+000	2.1832919E+002	6.064699808756510E+001	0.000000000000000E+000	1.351937188042534E+000	-6.2877603E-005	1.857807786949566E+005	8.577984268582892E+004	-1.000000000000000E+000	8.577984268582892E+004	-1.636081271705336E-003	1.0601643E-003
2	0	0	0	1	7.397818682919825E+005	-3.9780002E+000	-3.9785869E+000	-3.250369411580186E-001	4.000000000000000E+000	2.1706693E+002	6.029636806911893E+001	0.000000000000000E+000	1.702567206488709E+000	6.1428259E-006	1.897805298076728E+005	8.977959379854519E+004	-1.000000000000000E+000	8.977959379854519E+004	-1.797146267357164E-003	1.2931877E-003
2	0	0	1	1	7.437815754047688E+005	-4.3779807E+000	-4.3790832E+000	-3.996624883997608E-001	4.000000000000000E+000	2.1572566E+002	5.992379506429037E+001	0.000000000000000E+000	2.075140211317269E+000	2.9175007E-004	1.937802369204592E+005	9.377930091133155E+004	-1.000000000000000E+000	9.377930091133155E+004	-2.229478624130365E-003	1.7501552E-003
2	0	0	1	1	7.477812765175384E+005	-4.7779598E+000	-4.7790661E+000	-3.433747101769864E-001	4.000000000000000E+000	2.1431165E+002	5.953101264105903E+001	0.000000000000000E+000	2.467922634548607E+000	1.5937583E-005	1.977799380332287E+005	9.777900202410109E+004	-1.000000000000000E+000	9.777900202410109E+004	-1.915825737846433E-003	1.6410104E-003
2	1	0	0	0	7.517530342644546E+005	-4.8249569E+000	-4.8260283E+000	-3.350557047788461E-001	5.000000000000000E+000	2.1273863E+002	5.909406450059679E+001	0.000000000000000E+000	1.938459608289946E-001	4.9627866E-005	1.750910960567417E+003	1.750910960567417E+003	-1.000000000000000E+000	1.750910960567417E+003	-1.869201660156250E-003	1.6169883E-003
2	1	0	0	0	7.557528307771217E+005	-4.4249778E+000	-4.4261069E+000	-2.960648580338305E-001	5.000000000000000E+000	2.1149948E+002	5.874985588921441E+001	0.000000000000000E+000	5.380545722113723E-001	8.4616950E-005	5.750707473234506E+003	5.750707473234506E+003	-1.000000000000000E+000	5.750707473234506E+003	-1.644558376739269E-003	1.3104148E-003
2	1	0	0	0	7.597526295897779E+005	-4.0249977E+000	-4.0261059E+000	-2.197721432351496E-001	5.000000000000000E+000	2.1049220E+002	5.847005632188585E+001	0.000000000000000E+000	8.178541395399321E-001	-3.3280725E-005	9.750506285890704E+003	9.750506285890704E+003	-1.000000000000000E+000	9.750506285890704E+003	-1.220703125000000E-003	8.8482595E-004
2	1	0	0	0	7.637524260024223E+005	-3.6250186E+000	-3.6260929E+000	-1.880219248359034E-001	5.000000000000000E+000	2.0967848E+002	5.824402279324002E+001	0.000000000000000E+000	1.043887668185761E+000	1.1711619E-005	1.375030269853515E+004	1.375030269853515E+004	-1.000000000000000E+000	1.375030269853515E+004	-1.046922471786615E-003	6.8178499E-004
2	1	0	0	0	7.677522249150854E+005	-3.2250388E+000	-3.2261319E+000	-1.501573011726574E-001	5.000000000000000E+000	2.0900252E+002	5.805625491672092E+001	0.000000000000000E+000	1.231655544704864E+000	-5.3851882E-006	1.775010161119816E+004	1.775010161119816E+004	-1.000000000000000E+000	1.775010161119816E+004	-8.349948459240863E-004	4.8442726E-004
2	1	0	0	0	7.717520225277506E+005	-2.8250589E+000	-2.8261569E+000	-1.113540292973489E-001	5.000000000000000E+000	2.0848216E+002	5.791171179877387E+001	0.000000000000000E+000	1.376198662651909E+000	-4.5664643E-007	2.174989922386338E+004	2.174989922386338E+004	-1.000000000000000E+000	2.174989922386338E+004	-6.188286675339327E-004	3.1470394E-004
2	1	0	0	0	7.757518213404138E+005	-2.4250793E+000	-2.4260166E+000	-8.775082002046197E-002	5.000000000000000E+000	2.0808452E+002	5.780125512017144E+001	0.000000000000000E+000	1.486655341254341E+000	-1.2473341E-006	2.574969803652656E+004	2.574969803652656E+004	-1.000000000000000E+000	2.574969803652656E+004	-4.874335394973173E-004	2.1288494E-004
2	1	0	1	0	7.797516190530537E+005	-2.0251000E+000	-2.0259695E+000	-7.271767574831800E-002	5.000000000000000E+000	2.0769524E+002	5.769312116834853E+001	0.000000000000000E+000	1.594789293077255E+000	4.1720235E-005	2.974949574916647E+004	2.974949574916647E+004	-1.000000000000000E+000	2.974949574916647E+004	-3.984239366303655E-004	1.4732379E-004
2	1	0	1	0	7.837514183657113E+005	-1.6251203E+000	-1.6258050E+000	-5.939151432484668E-002	5.000000000000000E+000	2.0741599E+002	5.761555141872830E+001	0.000000000000000E+000	1.672359042697479E+000	-4.8498387E-006	3.374929506182414E+004	3.374929506182414E+004	-1.000000000000000E+000	3.374929506182414E+004	-3.263685438312791E-004	9.6559022E-005
2	1	0	0	0	7.877512160783764E+005	-1.2251407E+000	-1.2257810E+000	-3.845774738689857E-002	5.000000000000000E+000	2.0722205E+002	5.756167941623264E+001	0.000000000000000E+000	1.726231045193146E+000	4.3993414E-006	3.774909277448920E+004	3.774909277448920E+004	-1.000000000000000E+000	3.774909277448920E+004	-2.119276258696345E-004	4.7140773E-005
2	1	0	1	0	7.917510143910404E+005	-8.2516116E-001	-8.2582134E-001	-1.255473435449388E-001	5.000000000000000E+000	2.0673616E+002	5.742671118842231E+001	0.000000000000000E+000	1.861199273003471E+000	2.5724781E-005	4.174889108715323E+004	4.174889108715323E+004	-1.000000000000000E+000	4.174889108715323E+004	-6.993611653669518E-004	1.0367967E-004
2	1	0	0	0	7.957508115036900E+005	-4.2518157E-001	-4.2568690E-001	-5.493187903025291E-002	5.000000000000000E+000	2.0636842E+002	5.732456207275391E+001	0.000000000000000E+000	1.963348388671875E+000	1.2230311E-004	4.574868819980277E+004	4.574868819980277E+004	-1.000000000000000E+000	4.574868819980277E+004	-3.136528862839327E-004	2.3383782E-005
2	1	0	0	0	7.997506034163516E+005	-2.5201917E-002	-2.5679564E-002	1.016908386214103E-005	5.000000000000000E+000	2.0632347E+002	5.731207529703776E+001	0.000000000000000E+000	0.000000000000000E+000	5.1735789E-009	4.974848011246440E+004	0.000000000000000E+000	-1.000000000000000E+000	-1.000000000000000E+000	0.000000000000000E+000	-2.6113764E-010
2	1	0	1	0	8.037183970681243E+005	3.7157765E-001	3.7121922E-001	1.234044952951605E-002	5.000000000000000E+000	2.0633345E+002	5.731484731038412E+001	2.759297688804452E-003	0.000000000000000E+000	-5.5199225E-006	5.371627376423706E+004	5.371627376423706E+004	5.371627376423706E+004	-1.000000000000000E+000	6.781684027856727E-005	4.5810120E-006
2	1	0	1	0	8.077181933807870E+005	7.7155715E-001	7.7124441E-001	3.015504973872372E-002	5.000000000000000E+000	2.0640118E+002	5.733366224500868E+001	2.157423231336963E-002	0.000000000000000E+000	4.3483178E-005	5.771607007689984E+004	5.771607007689984E+004	5.771607007689984E+004	-1.000000000000000E+000	1.695421006928655E-004	2.3256913E-005
2	1	0	1	0	8.117179931934262E+005	1.1715364E+000	1.1712037E+000	3.397434667182490E-001	5.000000000000000E+000	2.0705051E+002	5.751402960883247E+001	2.019415961371536E-001	0.000000000000000E+000	1.2888093E-004	6.171586988953897E+004	6.171586988953897E+004	6.171586988953897E+004	-1.000000000000000E+000	1.869201660156250E-003	3.9790882E-004
2	1	0	1	0	8.157177913060877E+005	1.5715158E+000	1.5711949E+000	7.144991572740569E-001	5.000000000000000E+000	2.0901244E+002	5.805900997585721E+001	7.469219631618955E-001	0.000000000000000E+000	2.4217750E-004	6.571566800220055E+004	6.571566800220055E+004	6.571566800220055E+004	-1.000000000000000E+000	3.954569498702654E-003	1.1226174E-003
2	1	0	1	0	8.197175908187497E+005	1.9714953E+000	1.9713228E+000	1.300858807353535E+000	5.000000000000000E+000	2.1308516E+002	5.919032202826606E+001	1.878234015570747E+000	0.000000000000000E+000	2.9696101E-005	6.971546751486254E+004	6.971546751486254E+004	6.971546751486254E+004	-1.000000000000000E+000	7.218254937065183E-003	2.5644125E-003
2	1	0	1	0	8.237173891314138E+005	2.3714745E+000	2.3709962E+000	1.743576031852548E+000	5.000000000000000E+000	2.1900716E+002	6.083532121446397E+001	3.523233201768662E+000	0.000000000000000E+000	2.5013227E-003	7.371526582752657E+004	7.371526582752657E+004	7.371526582752657E+004	-1.000000000000000E+000	9.668138292099115E-003	4.1340124E-003
2	1	0	1	0	8.277171878440630E+005	2.7714541E+000	2.7710512E+000	2.309305358801758E+000	5.000000000000000E+000	2.2773941E+002	6.326094733344184E+001	5.948859320746529E+000	0.000000000000000E+000	-5.1684503E-004	7.771506454017584E+004	7.771506454017584E+004	7.771506454017584E+004	-1.000000000000000E+000	1.284705268012232E-002	6.3992031E-003
2	1	0	1	0	8.317169855567124E+005	3.1714334E+000	3.1710031E+000	2.305157469648641E+000	5.000000000000000E+000	2.3658437E+002	6.571787940131293E+001	8.405791388617615E+000	0.000000000000000E+000	1.5910802E-003	8.171486225282517E+004	8.171486225282517E+004	8.171486225282517E+004	-1.000000000000000E+000	1.303354899087594E-002	7.3096617E-003
2	1	0	0	0	8.357167868693713E+005	3.5714130E+000	3.5710895E+000	2.017392598978859E+000	5.000000000000000E+000	2.4488605E+002	6.802390204535590E+001	1.071181403266058E+001	0.000000000000000E+000	1.4329724E-003	8.571466356548411E+004	8.571466356548411E+004	8.571466356548411E+004	-1.000000000000000E+000	1.135932074652146E-002	7.2042895E-003
2	1	0	1	0	8.397165843820367E+005	3.9713922E+000	3.9711151E+000	1.104170987788493E+000	5.000000000000000E+000	2.5283041E+002	7.023067050509982E+001	1.291858249240451E+001	0.000000000000000E+000	-1.8947942E-003	8.971446107814950E+004	8.971446107814950E+004	8.971446107814950E+004	-1.000000000000000E+000	6.260342068145519E-003	4.3847901E-003
2	1	0	0	0	8.437163832946997E+005	4.3713713E+000	4.3708210E+000	1.073046177114929E+000	5.000000000000000E+000	2.5731107E+002	7.147529602050781E+001	1.416320800781250E+001	0.000000000000000E+000	1.4664938E-004	9.371425999081251E+004	9.371425999081251E+004	9.371425999081251E+004	-1.000000000000000E+000	6.095038519958962E-003	4.6900930E-003
2	1	0	0	0	8.477161822073394E+005	4.7713509E+000	4.7708340E+000	8.651982282005477E-001	5.000000000000000E+000	2.6092249E+002	7.247846815321181E+001	1.516638014051649E+001	0.000000000000000E+000	6.8845204E-004	9.771405890345224E+004	9.771405890345224E+004	9.771405890345224E+004	-1.000000000000000E+000	4.831949869796404E-003	4.1277171E-003
2	0	0	0	0	8.516939347469369E+005	4.8309484E+000	4.8301625E+000	6.261561402454214E-001	5.000000000000000E+000	2.6395828E+002	7.332174513075087E+001	1.600965711805556E+001	0.000000000000000E+000	2.3644438E-003	1.016918114430497E+005	1.690875233923784E+003	1.690875233923784E+003	-1.000000000000000E+000	3.323025173614269E-003	3.0244358E-003
2	0	0	0	0	8.556936382597219E+005	4.4309683E+000	4.4304314E+000	5.754595368893161E-001	5.000000000000000E+000	2.6658890E+002	7.405247158474393E+001	1.674038357204861E+001	0.000000000000000E+000	1.8050093E-003	1.056915149558347E+005	5.690578746708808E+003	5.690578746708808E+003	-1.000000000000000E+000	3.034803602432135E-003	2.5495340E-003
2	0	0	1	0	8.596933392724916E+005	4.0309892E+000	4.0304022E+000	6.127773580912010E-001	5.000000000000000E+000	2.6924716E+002	7.479087829589844E+001	1.747879028320313E+001	0.000000000000000E+000	-9.3509501E-005	1.096912159686044E+005	9.690279759478522E+003	9.690279759478522E+003	-1.000000000000000E+000	3.399319118926769E-003	2.4697392E-003
2	0	0	1	0	8.636930904852059E+005	3.6310096E+000	3.6303973E+000	5.356251115689794E-001	5.000000000000000E+000	2.7150235E+002	7.541731940375433E+001	1.810523139105902E+001	0.000000000000000E+000	2.3161073E-003	1.136909671813187E+005	1.369003097219276E+004	1.369003097219276E+004	-1.000000000000000E+000	2.704196506073231E-003	1.9445319E-003
2	0	0	0	0	8.676928427979182E+005	3.2310305E+000	3.2304940E+000	4.405251750975552E-001	5.000000000000000E+000	2.7352151E+002	7.597819858127170E+001	1.866611056857639E+001	0.000000000000000E+000	-3.9131215E-004	1.176907194940310E+005	1.768978328490513E+004	1.768978328490513E+004	-1.000000000000000E+000	2.475314670135731E-003	1.4231140E-003
2	0	0	0	0	8.716925939106345E+005	2.8310506E+000	2.8305323E+000	3.803700495080095E-001	5.000000000000000E+000	2.7531470E+002	7.647630479600694E+001	1.916421678331163E+001	0.000000000000000E+000	3.2850285E-004	1.216904706067473E+005	2.168953439762141E+004	2.168953439762141E+004	-1.000000000000000E+000	2.127753363708962E-003	1.0766498E-003
2	0	0	1	0	8.757003440135736E+005	2.4302714E+000	2.4297838E+000	5.953637471156856E-001	5.000000000000000E+000	2.7887360E+002	7.746488783094618E+001	2.015279981825087E+001	0.000000000000000E+000	-9.8464312E-004	1.256982207096864E+005	2.569728450056049E+004	2.569728450056049E+004	-1.000000000000000E+000	3.339979383682135E-003	1.4466052E-003
2	0	0	0	0	8.797000939262901E+005	2.0302920E+000	2.0299063E+000	9.589488438204867E-001	5.000000000000000E+000	2.8230453E+002	7.841792636447482E+001	2.110583835177951E+001	0.000000000000000E+000	-3.0470578E-004	1.296979706224028E+005	2.969703441327694E+004	2.969703441327694E+004	-1.000000000000000E+000	5.340576171875000E-003	1.9465763E-003
2	0	0	0	0	8.836998672389672E+005	1.6303129E+000	1.6298440E+000	8.867900246015559E-001	5.000000000000000E+000	2.8595767E+002	7.943268669976129E+001	2.212059868706598E+001	0.000000000000000E+000	9.4926357E-004	1.336977439350800E+005	3.369680772595410E+004	3.369680772595410E+004	-1.000000000000000E+000	4.908243815108904E-003	1.4453294E-003
2	0	0	0	0	8.876996421516705E+005	1.2303334E+000	1.2298836E+000	6.950553299038873E-001	5.000000000000000E+000	2.8898740E+002	8.027427673339844E+001	2.296218872070313E+001	0.000000000000000E+000	-1.0847624E-004	1.376975188477833E+005	3.769658263865742E+004	3.769658263865742E+004	-1.000000000000000E+000	3.857082790801769E-003	8.5483713E-004
2	0	0	1	0	8.916994220643360E+005	8.3035409E-001	8.2996756E-001	5.388525233440937E-001	5.000000000000000E+000	2.9144788E+002	8.095774332682292E+001	2.364565531412761E+001	0.000000000000000E+000	-4.6737336E-005	1.416972987604488E+005	4.169636255132291E+004	4.169636255132291E+004	-1.000000000000000E+000	2.992418077255365E-003	4.4723012E-004
2	0	0	1	0	8.956992090770192E+005	4.3037462E-001	4.2997748E-001	2.918443027083755E-001	5.000000000000000E+000	2.9311890E+002	8.142191569010417E+001	2.410982767740886E+001	0.000000000000000E+000	-1.5544449E-004	1.456970857731320E+005	4.569614956400613E+004	4.569614956400613E+004	-1.000000000000000E+000	1.627604166671404E-003	1.2548648E-004
2	0	0	1	0	8.996989974896812E+005	3.0395236E-002	3.0098716E-002	1.907010618978566E-002	5.000000000000000E+000	2.9373538E+002	8.159316168891058E+001	2.428107367621527E+001	0.000000000000000E+000	-6.3499567E-005	1.496968741857940E+005	4.969593797666812E+004	4.969593797666812E+004	-1.000000000000000E+000	1.102023654482309E-004	5.7398569E-007
2	0	0	0	0	9.036987861023508E+005	-3.6958435E-001	-3.7000760E-001	-2.276414299097214E-001	5.000000000000000E+000	2.9331577E+002	8.147660149468317E+001	0.000000000000000E+000	1.173400878906250E-001	-6.1274084E-005	1.536966627984636E+005	5.369572658933769E+004	-1.000000000000000E+000	5.369572658933769E+004	-1.263088650162558E-003	8.4229061E-005
2	0	0	1	0	9.076985724150352E+005	-7.6956403E-001	-7.6990467E-001	-3.360302103912085E-001	5.000000000000000E+000	2.9206696E+002	8.112970987955730E+001	0.000000000000000E+000	4.642317030164946E-001	2.0605649E-004	1.576964491111480E+005	5.769551290202211E+004	-1.000000000000000E+000	5.769551290202211E+004	-1.881917317703596E-003	2.5871122E-004
2	0	0	1	0	9.117023536228109E+005	-1.1699435E+000	-1.1703457E+000	-1.581925364132317E-001	5.000000000000000E+000	2.9166431E+002	8.101786295572917E+001	0.000000000000000E+000	5.760786268446196E-001	1.1915343E-004	1.617002303189237E+005	6.169929410979780E+004	-1.000000000000000E+000	6.169929410979780E+004	-8.816189236000582E-004	1.8513994E-004
2	0	0	1	0	9.157021281355054E+005	-1.5699230E+000	-1.5702171E+000	-3.194429156159639E-001	5.000000000000000E+000	2.9079105E+002	8.077529059516058E+001	0.000000000000000E+000	8.186509874132071E-001	1.9891087E-004	1.657000048316182E+005	6.569906862249225E+004	-1.000000000000000E+000	6.569906862249225E+004	-1.856486002608904E-003	5.0159474E-004
2	0	0	0	0	9.197039022457469E+005	-1.9701025E+000	-1.9703876E+000	-3.016092182795750E-001	5.000000000000000E+000	2.8971344E+002	8.047595553927951E+001	0.000000000000000E+000	1.117986043294280E+000	4.0220580E-004	1.697017789418597E+005	6.970084273273381E+004	-1.000000000000000E+000	6.970084273273381E+004	-1.686943901916038E-003	5.9428706E-004
2	0	0	1	0	9.237036545584593E+005	-2.3700821E+000	-2.3707631E+000	-2.067052115872785E-001	5.000000000000000E+000	2.8885129E+002	8.023646884494357E+001	0.000000000000000E+000	1.357472737630218E+000	-2.3008911E-006	1.737015312545721E+005	7.370059504544619E+004	-1.000000000000000E+000	7.370059504544619E+004	-1.144409179687500E-003	4.9004907E-004
2	0	0	1	0	9.277054048687313E+005	-2.7702620E+000	-2.7709739E+000	-6.560904141842698E-001	5.000000000000000E+000	2.8659827E+002	7.961062961154514E+001	0.000000000000000E+000	1.983311971028655E+000	7.0399466E-005	1.777032815648441E+005	7.770234535571816E+004	-1.000000000000000E+000	7.770234535571816E+004	-3.628200954864269E-003	1.8180094E-003
2	0	0	1	0	9.317051559814475E+005	-3.1702416E+000	-3.1709366E+000	-8.187024995524137E-001	5.000000000000000E+000	2.8373672E+002	7.881575690375433E+001	0.000000000000000E+000	2.778184678819457E+000	-1.4709824E-004	1.817030326775603E+005	8.170209646843444E+004	-1.000000000000000E+000	8.170209646843444E+004	-4.552205403655307E-003	2.5960538E-003
2	0	0	1	0	9.357049058941640E+005	-3.5702207E+000	-3.5708909E+000	-9.215483711405890E-001	5.000000000000000E+000	2.8018381E+002	7.782883538140192E+001	0.000000000000000E+000	3.765106201171875E+000	1.1207650E-004	1.857027825902768E+005	8.570184638115088E+004	-1.000000000000000E+000	8.570184638115088E+004	-5.137125651032193E-003	3.2907487E-003
2	0	0	1	0	9.397046572068762E+005	-3.9702005E+000	-3.9707930E+000	-1.164329556383734E+000	5.000000000000000E+000	2.7569531E+002	7.658203125000000E+001	0.000000000000000E+000	5.011910332573791E+000	-1.3751471E-005	1.897025339029890E+005	8.970159769386309E+004	-1.000000000000000E+000	8.970159769386309E+004	-6.451076931426769E-003	4.6233116E-003
2	0	0	1	0	9.437043641196359E+005	-4.3701806E+000	-4.3712673E+000	-1.401015075115609E+000	5.000000000000000E+000	2.7032114E+002	7.508920457628038E+001	0.000000000000000E+000	6.504737006293411E+000	2.8200520E-004	1.937022408157487E+005	9.370130460662278E+004	-1.000000000000000E+000	9.370130460662278E+004	-7.781982421875000E-003	6.1242115E-003
2	0	0	1	0	9.477040676324251E+005	-4.7701597E+000	-4.7713113E+000	-1.416659695002787E+000	5.000000000000000E+000	2.6472412E+002	7.353447808159723E+001	0.000000000000000E+000	8.059463500976563E+000	-2.9347875E-004	1.977019443285379E+005	9.770100811941200E+004	-1.000000000000000E+000	9.770100811941200E+004	-7.985432942703596E-003	6.7593246E-003
2	1	0	0	1	9.516738205817994E+005	-4.8329568E+000	-4.8340678E+000	-1.029095551123021E+000	6.000000000000000E+000	2.6010678E+002	7.225188361273871E+001	0.000000000000000E+000	4.911804199218750E-001	-5.8035081E-004	1.670912058329210E+003	1.670912058329210E+003	-1.000000000000000E+000	1.670912058329210E+003	-5.730523003478538E-003	4.9747177E-003
2	1	0	0	1	9.556736192944380E+005	-4.4329772E+000	-4.4340963E+000	-7.850045344231553E-001	6.000000000000000E+000	2.5649539E+002	7.124871995713976E+001	0.000000000000000E+000	1.494344075520829E+000	1.9487257E-004	5.670710770967882E+003	5.670710770967882E+003	-1.000000000000000E+000	5.670710770967882E+003	-4.365709092880365E-003	3.4807858E-003
2	1	0	0	1	9.596734182070959E+005	-4.0329976E+000	-4.0340300E+000	-6.251380564602300E-001	6.000000000000000E+000	2.5361626E+002	7.044896019829645E+001	0.000000000000000E+000	2.294103834364137E+000	8.5318155E-005	9.670509683625773E+003	9.670509683625773E+003	-1.000000000000000E+000	9.670509683625773E+003	-3.479851616745577E-003	2.5218257E-003
2	1	0	1	1	9.636732158197612E+005	-3.6330178E+000	-3.6340816E+000	-4.390506919444270E-001	6.000000000000000E+000	2.5149126E+002	6.985868242051866E+001	0.000000000000000E+000	2.884381612141922E+000	1.2164447E-005	1.367030729629099E+004	1.367030729629099E+004	-1.000000000000000E+000	1.367030729629099E+004	-2.437167697479481E-003	1.5955460E-003
2	1	0	0	1	9.676730134324264E+005	-3.2330382E+000	-3.2341278E+000	-3.301618896604452E-001	6.000000000000000E+000	2.4991983E+002	6.942217508951823E+001	0.000000000000000E+000	3.320888943142350E+000	1.5167727E-005	1.767010490895621E+004	1.767010490895621E+004	-1.000000000000000E+000	1.767010490895621E+004	-1.839531792526827E-003	1.0677858E-003
2	1	0	0	1	9.716728123450740E+005	-2.8330588E+000	-2.8340771E+000	-2.257313840415838E-001	6.000000000000000E+000	2.4882170E+002	6.911713918050130E+001	0.000000000000000E+000	3.625924852159287E+000	2.5232970E-005	2.166990382160386E+004	2.166990382160386E+004	-1.000000000000000E+000	2.166990382160386E+004	-1.258850097656250E-003	6.3974014E-004
2	1	0	0	1	9.756726099577248E+005	-2.4330790E+000	-2.4340241E+000	-1.487970503268507E-001	6.000000000000000E+000	2.4807722E+002	6.891034020317926E+001	0.000000000000000E+000	3.832723829481324E+000	8.9811911E-006	2.566970143425465E+004	2.566970143425465E+004	-1.000000000000000E+000	2.566970143425465E+004	-8.265177408759428E-004	3.6217560E-004
2	1	0	0	1	9.796724087703880E+005	-2.0330997E+000	-2.0339394E+000	-1.484540414624231E-001	6.000000000000000E+000	2.4750711E+002	6.875197516547308E+001	0.000000000000000E+000	3.991088867187500E+000	2.5923040E-005	2.966950024691783E+004	2.966950024691783E+004	-1.000000000000000E+000	2.966950024691783E+004	-8.222791883696345E-004	3.0194651E-004
2	1	0	1	1	9.836722076830510E+005	-1.6331199E+000	-1.6338302E+000	-8.788287811358264E-002	6.000000000000000E+000	2.4705214E+002	6.862559424506293E+001	0.000000000000000E+000	4.117469787597656E+000	3.4603963E-006	3.366929915958084E+004	3.366929915958084E+004	-1.000000000000000E+000	3.366929915958084E+004	-4.874335395044227E-004	1.4358570E-004
2	1	0	0	1	9.876720057957107E+005	-1.2331401E+000	-1.2338091E+000	-1.059950899396895E-001	6.000000000000000E+000	2.4653366E+002	6.848157246907552E+001	0.000000000000000E+000	4.261491563585068E+000	1.2189455E-005	3.766909727224056E+004	3.766909727224056E+004	-1.000000000000000E+000	3.766909727224056E+004	-5.891587999116155E-004	1.3077771E-004
2	1	0	0	1	9.916718038083501E+005	-8.3316070E-001	-8.3376271E-001	-5.570372022606640E-002	6.000000000000000E+000	2.4621523E+002	6.839311811659071E+001	0.000000000000000E+000	4.349945916069871E+000	7.2927860E-006	4.166889528487995E+004	4.166889528487995E+004	-1.000000000000000E+000	4.166889528487995E+004	-3.094143337705191E-004	4.6443685E-005
2	1	0	0	1	9.956716009210162E+005	-4.3318111E-001	-4.3363979E-001	-2.088603552990110E-002	6.000000000000000E+000	2.4607579E+002	6.835438622368707E+001	0.000000000000000E+000	4.388677808973512E+000	6.1453156E-006	4.566869239754602E+004	4.566869239754602E+004	-1.000000000000000E+000	4.566869239754602E+004	-1.186794704750582E-004	9.0570165E-006
